05-29-2020  12:01:14
Wavenumber (cm-1)  CCD Output
 251   5499.09912507126 
 252   5643.19115811169 
 253   5773.3965498232 
 254   5876.73218897229 
 255   5982.28234774933 
 256   6105.84501932455 
 257   6235.2645558477 
 258   6336.70828676716 
 259   6410.39787161538 
 260   6495.45734780908 
 261   6584.71656364047 
 262   6665.2182732685 
 263   6739.45258887778 
 264   6810.63671550186 
 265   6875.76529161691 
 266   6925.39051270638 
 267   6979.81709499645 
 268   7046.73520198351 
 269   7084.9663666538 
 270   7109.86072948739 
 271   7150.74434472618 
 272   7186.39488445001 
 273   7209.01690095181 
 274   7227.22163809736 
 275   7255.60206892035 
 276   7300.47073218959 
 277   7351.65034856705 
 278   7372.26581336829 
 279   7386.11495596656 
 280   7449.01267884768 
 281   7514.05182789941 
 282   7561.9314967165 
 283   7617.21700866709 
 284   7659.67403083045 
 285   7686.69905572997 
 286   7722.97269805767 
 287   7749.28921301293 
 288   7768.09363729455 
 289   7817.00080933353 
 290   7857.74954691924 
 291   7869.60878619108 
 292   7893.3123386257 
 293   7916.49992333744 
 294   7930.25996998164 
 295   7965.58012175037 
 296   8002.00423785752 
 297   8015.38587667427 
 298   8022.55618952851 
 299   8033.43414034584 
 300   8049.88678515816 
 301   8070.04278428268 
 302   8096.28032717497 
 303   8124.74957271438 
 304   8134.01896164459 
 305   8135.81144760928 
 306   8153.23930388341 
 307   8181.37771936431 
 308   8224.87469779595 
 309   8284.61939182701 
 310   8326.17197523027 
 311   8344.2931938249 
 312   8360.14593011034 
 313   8392.60444273832 
 314   8442.02257324133 
 315   8493.26395230618 
 316   8530.02125582645 
 317   8563.47187768019 
 318   8615.74148997622 
 319   8663.70176263367 
 320   8708.16208105312 
 321   8773.14601433568 
 322   8850.24996960935 
 323   8929.20890520929 
 324   9007.39735082704 
 325   9088.51812568172 
 326   9175.50951897506 
 327   9264.52586577845 
 328   9334.02387377628 
 329   9388.6089494252 
 330   9458.00611749 
 331   9534.24024562901 
 332   9601.83735454582 
 333   9654.98966603684 
 334   9713.57078041899 
 335   9784.32337242989 
 336   9851.59932815214 
 337   9908.82786304914 
 338   9973.9033852505 
 339   10072.332495312 
 340   10140.969652476 
 341   10158.4402536492 
 342   10179.6968206376 
 343   10207.9654949272 
 344   10233.9617776428 
 345   10257.6228884504 
 346   10288.2900443206 
 347   10323.4015810908 
 348   10343.042240295 
 349   10336.0235660247 
 350   10331.5571395256 
 351   10386.6165536373 
 352   10454.972816886 
 353   10509.0736119864 
 354   10580.3547836016 
 355   10647.9410660573 
 356   10697.7612566322 
 357   10747.8021652151 
 358   10812.7559728428 
 359   10889.0138813897 
 360   10955.0881046091 
 361   11004.6746550446 
 362   11041.1134920634 
 363   11067.0007047455 
 364   11055.5857529273 
 365   11019.1153029057 
 366   11012.0485376041 
 367   11008.8655070043 
 368   10987.4136236161 
 369   10958.8643297427 
 370   10929.5005665523 
 371   10892.1412718099 
 372   10836.9142700091 
 373   10800.1888800972 
 374   10806.4206095249 
 375   10844.8489936392 
 376   10874.0992914218 
 377   10887.9249850914 
 378   10917.3566667338 
 379   10961.1824694964 
 380   11022.4696226877 
 381   11112.1000392762 
 382   11220.079736028 
 383   11326.6333303146 
 384   11411.2045681454 
 385   11467.465719327 
 386   11517.1428064326 
 387   11586.0509397643 
 388   11642.5082409352 
 389   11694.5343046871 
 390   11765.1679090291 
 391   11795.2831103583 
 392   11797.4340400084 
 393   11820.1506051639 
 394   11823.8965995482 
 395   11806.5178228173 
 396   11796.5485818204 
 397   11800.4050731254 
 398   11794.192978756 
 399   11759.1940101864 
 400   11728.6795144243 
 401   11721.2339482793 
 402   11733.1688907465 
 403   11744.468039069 
 404   11758.3316226176 
 405   11798.1196757133 
 406   11891.9338739969 
 407   12007.9406040357 
 408   12118.3654321141 
 409   12250.0555210153 
 410   12403.2166779293 
 411   12567.402753884 
 412   12734.8259616228 
 413   12881.7139923822 
 414   13019.6818472201 
 415   13196.3426006963 
 416   13344.9386516902 
 417   13422.6588034887 
 418   13465.1613876972 
 419   13507.8925779253 
 420   13539.8673386058 
 421   13517.5528497638 
 422   13461.5766796199 
 423   13399.80108473 
 424   13338.1386678334 
 425   13241.2973433374 
 426   13119.711757699 
 427   13009.9489551946 
 428   12894.5928102368 
 429   12780.3700989561 
 430   12672.016974886 
 431   12518.3735627139 
 432   12383.2737397272 
 433   12325.868776859 
 434   12245.6502320558 
 435   12154.4125337508 
 436   12094.5064565951 
 437   12040.8911126618 
 438   11999.4715706027 
 439   11978.2304971273 
 440   11963.2455160392 
 441   11946.6100018474 
 442   11932.2761128489 
 443   11932.0729601533 
 444   11939.9563818706 
 445   11940.3317248279 
 446   11917.5728043542 
 447   11873.76853061 
 448   11836.0653797052 
 449   11826.1848734986 
 450   11793.0277716292 
 451   11751.4780008409 
 452   11753.3963885988 
 453   11785.3729661201 
 454   11814.4105312014 
 455   11827.1911241382 
 456   11860.0375516029 
 457   11919.8079679604 
 458   11988.6249964819 
 459   12046.7588725039 
 460   12132.9719034452 
 461   12247.343947926 
 462   12322.3741944856 
 463   12396.0172981936 
 464   12480.1679741196 
 465   12531.5770167924 
 466   12572.2717209949 
 467   12635.3555809172 
 468   12727.0612414188 
 469   12791.3099188512 
 470   12815.673724318 
 471   12825.4829520503 
 472   12835.2229319083 
 473   12840.4143010092 
 474   12835.9324177593 
 475   12833.7487180457 
 476   12836.8257567666 
 477   12830.7030465479 
 478   12790.7118738482 
 479   12740.1639259719 
 480   12699.7275188356 
 481   12663.4449944435 
 482   12614.876335217 
 483   12540.5778236019 
 484   12450.9056494956 
 485   12408.675142602 
 486   12378.3087514854 
 487   12295.9672642084 
 488   12216.6857816765 
 489   12141.1833882006 
 490   12055.1664309542 
 491   11985.1800250689 
 492   11910.716494446 
 493   11822.2730516482 
 494   11748.2877428878 
 495   11674.6434013723 
 496   11604.522432524 
 497   11563.389428061 
 498   11533.3780436607 
 499   11501.9437524545 
 500   11469.339796491 
 501   11437.8352599344 
 502   11434.1094262023 
 503   11460.9541449128 
 504   11456.2530332808 
 505   11444.1149131569 
 506   11453.0534056002 
 507   11459.6169098938 
 508   11466.4746133506 
 509   11483.9070420775 
 510   11510.2456340325 
 511   11512.7840083239 
 512   11506.2336659438 
 513   11530.216492952 
 514   11572.1723946409 
 515   11615.1485778919 
 516   11648.6731506225 
 517   11672.350755475 
 518   11705.3187790953 
 519   11752.3614387043 
 520   11798.2518797749 
 521   11877.1676728034 
 522   11975.2140307532 
 523   12040.8379609187 
 524   12108.8378893297 
 525   12208.4051074831 
 526   12341.3639466604 
 527   12487.321735882 
 528   12626.1942297979 
 529   12758.9583054133 
 530   12908.7172449415 
 531   13046.9425496654 
 532   13172.0309659862 
 533   13318.2113144042 
 534   13450.3054980322 
 535   13533.9121493559 
 536   13573.9733183978 
 537   13629.5708876226 
 538   13674.9304020298 
 539   13671.5848978781 
 540   13654.1176803661 
 541   13643.9028523687 
 542   13635.5924155644 
 543   13608.0890750253 
 544   13570.9057529821 
 545   13548.9561021493 
 546   13553.3436871272 
 547   13544.798758053 
 548   13528.6058035693 
 549   13530.8188599135 
 550   13551.3710337382 
 551   13560.3292827539 
 552   13552.6758648388 
 553   13561.1873724637 
 554   13584.7215566072 
 555   13595.7553255538 
 556   13576.6075506051 
 557   13571.268181791 
 558   13584.8731553317 
 559   13589.2908515411 
 560   13560.1598603693 
 561   13540.0126526649 
 562   13536.8278937455 
 563   13502.7219681014 
 564   13456.3823045602 
 565   13439.7001188905 
 566   13454.6339868252 
 567   13407.4041505487 
 568   13330.574528594 
 569   13293.8728741932 
 570   13297.6919536896 
 571   13305.068350082 
 572   13303.1361863296 
 573   13311.8703361196 
 574   13335.6579535572 
 575   13361.1180909224 
 576   13395.9712729079 
 577   13499.9385358933 
 578   13636.3658918135 
 579   13767.196541311 
 580   13907.4104083313 
 581   14035.6235686458 
 582   14182.1801759969 
 583   14390.3816471219 
 584   14591.9262486616 
 585   14754.3972861371 
 586   14890.5011355254 
 587   15028.1739985755 
 588   15152.414978747 
 589   15241.5818592733 
 590   15300.9384379971 
 591   15383.2996567801 
 592   15431.6498380702 
 593   15386.4125914526 
 594   15341.4114835776 
 595   15328.4142674674 
 596   15311.0977363479 
 597   15235.3450776685 
 598   15142.5684322149 
 599   15056.7861674512 
 600   14960.0617747519 
 601   14823.1909208754 
 602   14678.1027318247 
 603   14544.7449361958 
 604   14389.8063704827 
 605   14224.0423074922 
 606   14067.2900531412 
 607   13924.731334638 
 608   13777.6651687198 
 609   13630.2963772208 
 610   13490.0215123484 
 611   13351.5891449676 
 612   13240.078558827 
 613   13143.8622829789 
 614   13025.7535708722 
 615   12907.9453132497 
 616   12802.3999003942 
 617   12706.0799977693 
 618   12615.0252901043 
 619   12539.132130885 
 620   12474.1956830075 
 621   12404.5808817555 
 622   12341.5218502442 
 623   12313.6694666634 
 624   12317.518446893 
 625   12294.9662711375 
 626   12275.0322507223 
 627   12273.5956712642 
 628   12269.0796409341 
 629   12274.6959320099 
 630   12279.2295728959 
 631   12267.62198116 
 632   12254.2943943475 
 633   12258.6567341952 
 634   12276.2032857685 
 635   12286.403307392 
 636   12298.8082418142 
 637   12334.4632983298 
 638   12388.2365441498 
 639   12418.611435802 
 640   12457.6521437542 
 641   12513.9290835351 
 642   12551.7902031836 
 643   12557.9427347182 
 644   12583.552351876 
 645   12636.3538030457 
 646   12627.9821671541 
 647   12606.7372428432 
 648   12602.5557533966 
 649   12599.6934056647 
 650   12614.3177811828 
 651   12636.2842447591 
 652   12657.5847961849 
 653   12690.8937205382 
 654   12722.4634794053 
 655   12759.1745345608 
 656   12816.058176791 
 657   12873.8141620734 
 658   12916.8238097804 
 659   12950.7788158686 
 660   12997.2011816933 
 661   13053.925438052 
 662   13102.8369643177 
 663   13137.6440723286 
 664   13182.9554242751 
 665   13227.7083777752 
 666   13255.6822772946 
 667   13267.9183685902 
 668   13283.2895005802 
 669   13300.3233835483 
 670   13301.6995775696 
 671   13278.0628113941 
 672   13269.0784810729 
 673   13255.8579344905 
 674   13204.4115364282 
 675   13188.9828128223 
 676   13188.2440042354 
 677   13179.2753520619 
 678   13187.9415711489 
 679   13175.6229333652 
 680   13148.7832397737 
 681   13134.6080799317 
 682   13119.2036834728 
 683   13097.4704783322 
 684   13122.4034459954 
 685   13167.9141024997 
 686   12912.4864225489 
 687   12679.9342117981 
 688   12720.3306891285 
 689   12728.5816611872 
 690   12756.7583725108 
 691   12802.5557070796 
 692   12810.0024077001 
 693   12838.5739637677 
 694   12794.6080041385 
 695   12832.6054004033 
 696   13164.9913797124 
 697   13268.1672449815 
 698   13212.8433438975 
 699   13246.2315600934 
 700   13291.1465231204 
 701   13325.096240489 
 702   13356.0019600104 
 703   13394.8407049337 
 704   13445.1892967492 
 705   13506.3287559237 
 706   13569.5672916716 
 707   13628.4050592474 
 708   13695.4772076565 
 709   13732.2726965374 
 710   13736.5949452597 
 711   13773.4989200676 
 712   13825.0731941202 
 713   13895.8772206101 
 714   13974.7474618533 
 715   14018.8563787598 
 716   14254.4435003518 
 717   14570.4656277834 
 718   14680.6856753097 
 719   14806.086687956 
 720   14964.2936597502 
 721   15116.3282966365 
 722   15287.8385063286 
 723   15443.7250233064 
 724   15637.636920096 
 725   15828.1073705166 
 726   15851.954841693 
 727   16018.5177123357 
 728   16322.363112674 
 729   16584.7223058589 
 730   16919.8310560955 
 731   17269.0764877888 
 732   17610.9650578167 
 733   17995.9261042101 
 734   18389.2714346983 
 735   18764.8862131698 
 736   19105.9351411947 
 737   19415.5027980908 
 738   19750.0311739022 
 739   20042.7344628269 
 740   20265.5095024688 
 741   20507.5308784238 
 742   20671.1543522339 
 743   20777.4637382135 
 744   20878.4787565644 
 745   20895.389325248 
 746   20864.0301887838 
 747   20795.2560226381 
 748   20656.5034829584 
 749   20446.5909544541 
 750   20194.2292119818 
 751   19916.7317408128 
 752   19593.0042289225 
 753   19175.7396551745 
 754   18746.462726686 
 755   18352.7132232409 
 756   17943.364676051 
 757   17515.8365734409 
 758   17093.8926680678 
 759   16699.8456814488 
 760   16334.4537648317 
 761   15975.3822556914 
 762   15658.8271315337 
 763   15410.7973991214 
 764   15185.9854923933 
 765   14980.5927357642 
 766   14822.7900224609 
 767   14723.5150937322 
 768   14641.508515031 
 769   14555.5638746074 
 770   14490.5548583602 
 771   14469.2153788221 
 772   14454.5639323146 
 773   14456.5573887252 
 774   14467.1135966711 
 775   14463.0940477292 
 776   14466.5234442019 
 777   14496.72085487 
 778   14563.699835505 
 779   14672.0841178951 
 780   14825.6168297583 
 781   15017.4735411508 
 782   15225.1481762719 
 783   15449.5482836168 
 784   15771.719605412 
 785   16125.2822900448 
 786   16475.3074874303 
 787   16886.6446387176 
 788   17327.3031156954 
 789   17784.4800332182 
 790   18244.2154192163 
 791   18673.243213475 
 792   19067.923250424 
 793   19439.0505736011 
 794   19766.2153890133 
 795   20002.1941119942 
 796   20167.8336899843 
 797   20241.4805759243 
 798   20214.3083470483 
 799   20146.1677598205 
 800   20094.1515065874 
 801   19985.9771891032 
 802   19783.2634646326 
 803   19585.783794552 
 804   19405.1481919222 
 805   19237.260662166 
 806   19080.5200268686 
 807   18933.7826196701 
 808   18812.2718266127 
 809   18730.7397257169 
 810   18698.1996433128 
 811   18709.5390984233 
 812   18724.971996806 
 813   18732.4534615896 
 814   18753.3301016766 
 815   18809.9488601048 
 816   18873.2470602695 
 817   18955.3409403681 
 818   19060.4311593907 
 819   19157.4226634094 
 820   19303.3804914237 
 821   19486.6378453296 
 822   19676.460282057 
 823   19892.3963180926 
 824   20144.9445510951 
 825   20421.4755214304 
 826   20693.2298331599 
 827   20947.1731852135 
 828   21232.9955888738 
 829   21502.3626090876 
 830   21716.8841759406 
 831   21924.3835512505 
 832   22134.1584695836 
 833   22302.9000897999 
 834   22425.6218463092 
 835   22551.0550959488 
 836   22662.7346657255 
 837   22761.4450211952 
 838   22851.0834797529 
 839   22930.1893677073 
 840   23012.4218877353 
 841   23048.7020541171 
 842   23058.076787175 
 843   23081.7170665767 
 844   22987.6751455435 
 845   22866.5663770216 
 846   22749.642860054 
 847   22554.6309933192 
 848   22285.7622704627 
 849   21842.6123734512 
 850   21286.5026532986 
 851   20758.4680947993 
 852   20207.9585013242 
 853   19650.1272128853 
 854   19051.95910578 
 855   18390.0387698595 
 856   17736.3520555098 
 857   17043.1672367312 
 858   16483.6734739584 
 859   16110.7845602994 
 860   15620.8496118457 
 861   15131.0054486516 
 862   14748.550739704 
 863   14430.7322136322 
 864   14096.7868293359 
 865   13859.6729585863 
 866   13702.9998096151 
 867   13571.3892318741 
 868   13463.2197431382 
 869   13367.7082730782 
 870   13290.8004981357 
 871   13247.2750292243 
 872   13235.1609400153 
 873   13218.1466585365 
 874   13186.750920197 
 875   13163.6691875047 
 876   13145.9545225896 
 877   13082.229401908 
 878   13057.5251783135 
 879   13068.5641671553 
 880   13061.5511145218 
 881   13050.6052474002 
 882   13064.5534176587 
 883   13086.9915211804 
 884   13115.3058414429 
 885   13191.8453765459 
 886   13329.9630079994 
 887   13471.1445931881 
 888   13602.4736769318 
 889   13761.5902345651 
 890   13932.4410656427 
 891   14147.2477428562 
 892   14435.0247200076 
 893   14786.452077838 
 894   15161.5049983841 
 895   15538.3051186299 
 896   15957.941860752 
 897   16427.0243867695 
 898   16885.5718055365 
 899   17375.9291736778 
 900   17846.3273220659 
 901   18234.6181441002 
 902   18534.3475378538 
 903   18753.6021603629 
 904   18965.4595573535 
 905   19096.1622551814 
 906   19081.4122078582 
 907   19087.9932212933 
 908   19020.5375020546 
 909   18851.9030601509 
 910   18651.7360153955 
 911   18465.2403301939 
 912   18275.3277201622 
 913   18077.1813948806 
 914   17872.2635679898 
 915   17670.2877997696 
 916   17502.2737986128 
 917   17332.2998018711 
 918   17184.7522044016 
 919   17077.029296875 
 920   16932.1271328009 
 921   16795.4800624957 
 922   16629.6475195062 
 923   16421.5562000524 
 924   16233.4103565003 
 925   16026.5942739079 
 926   15826.9580783425 
 927   15626.6508168112 
 928   15403.3260190864 
 929   15215.8559439925 
 930   15069.1523331511 
 931   14947.91994904 
 932   14838.8335264805 
 933   14744.4778304148 
 934   14694.5781331939 
 935   14657.6495003807 
 936   14629.6499584863 
 937   14631.4402002921 
 938   14621.2144761604 
 939   14574.8372855562 
 940   14501.9646033851 
 941   14441.0288993044 
 942   14412.2583813496 
 943   14342.5210527422 
 944   14255.964954286 
 945   14168.2887324285 
 946   14048.1640748569 
 947   13901.4554270764 
 948   13753.8159578414 
 949   13626.8475752063 
 950   13490.3523757269 
 951   13283.2214572217 
 952   13046.0034737749 
 953   12820.9302169866 
 954   12606.7757533904 
 955   12395.179386669 
 956   12217.9935087563 
 957   12060.1535718961 
 958   11910.737273683 
 959   11779.9969956672 
 960   11691.4055664674 
 961   11660.0747363612 
 962   11621.8215095149 
 963   11561.2775265871 
 964   11505.5901920404 
 965   11445.2694899476 
 966   11406.240443602 
 967   11374.3117455358 
 968   11348.8811625606 
 969   11344.3129336318 
 970   11316.9960215864 
 971   11311.6525941353 
 972   11318.6852342536 
 973   11319.7507699856 
 974   11352.6189992072 
 975   11375.4986080133 
 976   11364.1062695253 
 977   11352.911390974 
 978   11373.882992848 
 979   11389.6043756257 
 980   11409.29750116 
 981   11450.6845460878 
 982   11520.430935974 
 983   11597.875952892 
 984   11642.1547442993 
 985   11738.1074476778 
 986   11862.0470551544 
 987   11992.4361200763 
 988   12202.4454837926 
 989   12377.1909918077 
 990   12591.1819914274 
 991   12859.365659538 
 992   13144.3022142538 
 993   13520.2745835043 
 994   13895.8668679481 
 995   14262.9872450677 
 996   14653.3844845978 
 997   15056.80279744 
 998   15442.872156342 
 999   15806.2712307031 
 1000   16142.2905045916 
 1001   16431.0854584926 
 1002   16677.6160971955 
 1003   16943.4133214239 
 1004   17099.881980063 
 1005   17201.4253479126 
 1006   17302.030954529 
 1007   17277.2881912708 
 1008   17237.8336183917 
 1009   17170.2197556337 
 1010   17083.8900992485 
 1011   16992.3902093772 
 1012   16838.9699865133 
 1013   16715.4551225794 
 1014   16603.5541685405 
 1015   16487.4457847546 
 1016   16373.3903200789 
 1017   16215.9348768805 
 1018   16057.1280888107 
 1019   15897.3687914174 
 1020   15721.2153618457 
