05-29-2020  12:04:08
Wavenumber (cm-1)  CCD Output
 251   1781.93008016235 
 252   1817.79176844584 
 253   1853.2059348567 
 254   1879.77796720734 
 255   1896.24004719215 
 256   1908.92516638625 
 257   1925.64744611936 
 258   1934.77075982819 
 259   1933.49189036338 
 260   1933.81902352322 
 261   1935.62243385512 
 262   1936.95877363225 
 263   1939.99639195954 
 264   1949.33761803941 
 265   1962.41135034489 
 266   1966.02066052278 
 267   1970.2568216179 
 268   1985.89298095369 
 269   2002.44388369721 
 270   2019.8016756559 
 271   2039.34578978534 
 272   2050.08303348549 
 273   2060.82660370753 
 274   2085.33055383528 
 275   2111.42922396261 
 276   2136.63963883661 
 277   2165.22102060456 
 278   2188.04696656787 
 279   2209.840481825 
 280   2241.83507135452 
 281   2264.32350550738 
 282   2284.00185687417 
 283   2326.87753085627 
 284   2351.26164475326 
 285   2346.65796812965 
 286   2354.31927362096 
 287   2378.22091830507 
 288   2406.6802438587 
 289   2426.41934943891 
 290   2435.2385111741 
 291   2446.07730649447 
 292   2479.3126644652 
 293   2495.45577568809 
 294   2479.61274546284 
 295   2489.66540684309 
 296   2501.12904711781 
 297   2478.15990595206 
 298   2442.63373368392 
 299   2418.49891963737 
 300   2409.26738490025 
 301   2383.54222891324 
 302   2335.89874429228 
 303   2280.9992836375 
 304   2236.83794447103 
 305   2197.48788140736 
 306   2155.62661997881 
 307   2136.69232122549 
 308   2127.76326128509 
 309   2099.29169956405 
 310   2060.3978883779 
 311   2029.37385957947 
 312   2014.9470113077 
 313   1993.12520085274 
 314   1963.35182387687 
 315   1941.62345112885 
 316   1919.40831637276 
 317   1894.85798482908 
 318   1873.36099735622 
 319   1849.94999453242 
 320   1833.61729173612 
 321   1837.43802982293 
 322   1833.70462730683 
 323   1819.75316344849 
 324   1819.90049293819 
 325   1828.87434717071 
 326   1843.45087670707 
 327   1866.26055617506 
 328   1881.80913017735 
 329   1893.55484430289 
 330   1920.48381251599 
 331   1935.78767355717 
 332   1939.6346508295 
 333   1968.65760254722 
 334   2017.17096368089 
 335   2071.43978328945 
 336   2124.57461552752 
 337   2173.92560223273 
 338   2220.87414595194 
 339   2271.22481060428 
 340   2335.40140155231 
 341   2410.63361398396 
 342   2480.66747092859 
 343   2551.98753948296 
 344   2624.94251124678 
 345   2688.39605606261 
 346   2761.20136627037 
 347   2848.7442071968 
 348   2931.65640474641 
 349   3018.09082498073 
 350   3113.80115071486 
 351   3212.04315420021 
 352   3321.77816697653 
 353   3444.60577004876 
 354   3568.05373515147 
 355   3692.18163992829 
 356   3806.87148883525 
 357   3892.70577816199 
 358   3978.65594351531 
 359   4072.39512676148 
 360   4143.71564610549 
 361   4210.16320900123 
 362   4269.27088674204 
 363   4283.51158300071 
 364   4266.20496721079 
 365   4241.98281045712 
 366   4223.85294433547 
 367   4201.5425213236 
 368   4162.21395549141 
 369   4104.27479577305 
 370   4053.28627109999 
 371   4004.49079600675 
 372   3926.96023701211 
 373   3867.80934371081 
 374   3844.54778573266 
 375   3820.72966884747 
 376   3777.73553369342 
 377   3741.51716108944 
 378   3756.09658217866 
 379   3774.56752633981 
 380   3795.7811320916 
 381   3866.68890267541 
 382   3952.3534732529 
 383   4033.63214344541 
 384   4128.67505796599 
 385   4264.04921048942 
 386   4431.65718956657 
 387   4604.84485006266 
 388   4801.74121236063 
 389   5024.83996082254 
 390   5255.31868623098 
 391   5475.22192353231 
 392   5690.34150359162 
 393   5913.8068087447 
 394   6127.84848958922 
 395   6311.31966875563 
 396   6462.49670170877 
 397   6619.65814271332 
 398   6749.104111545 
 399   6796.69279247901 
 400   6781.12598063058 
 401   6714.33751344123 
 402   6597.94474384552 
 403   6433.80452429174 
 404   6221.7715827468 
 405   5968.10984693379 
 406   5689.74847421739 
 407   5373.00232194503 
 408   5014.0557581796 
 409   4651.25255608443 
 410   4309.11438475546 
 411   3996.36953586975 
 412   3707.9729222234 
 413   3429.2814872888 
 414   3170.69860137034 
 415   2968.40465193254 
 416   2788.23704188374 
 417   2618.4420050687 
 418   2492.6208850539 
 419   2387.85528606137 
 420   2286.86917355387 
 421   2196.26776789525 
 422   2118.34786653439 
 423   2068.95324405354 
 424   2059.25080655415 
 425   2038.8210054731 
 426   2008.72549561815 
 427   2002.62419752337 
 428   1995.49157091053 
 429   2006.8661528891 
 430   2059.52550669893 
 431   2091.12569726836 
 432   2110.54053941156 
 433   2148.28639664687 
 434   2175.06743095325 
 435   2208.25896001107 
 436   2259.70437406962 
 437   2288.32842138814 
 438   2317.3427261423 
 439   2359.63588690659 
 440   2375.07479818112 
 441   2385.01291082699 
 442   2396.49072881062 
 443   2379.82132714288 
 444   2369.89341116697 
 445   2368.28248950807 
 446   2336.38685189082 
 447   2307.075881148 
 448   2278.87480646296 
 449   2215.53389526942 
 450   2125.90001225455 
 451   2047.94114263483 
 452   2010.53960179523 
 453   1980.24623948639 
 454   1923.26249786985 
 455   1840.50815867368 
 456   1784.94707479936 
 457   1740.40187756127 
 458   1690.19663840566 
 459   1675.93975975062 
 460   1687.22290427987 
 461   1693.19184811039 
 462   1675.38320125819 
 463   1653.44071569187 
 464   1646.9858779048 
 465   1657.16526007629 
 466   1667.95691647511 
 467   1682.38493063025 
 468   1713.15690458677 
 469   1738.2094460123 
 470   1764.1264253676 
 471   1806.36825041039 
 472   1840.69902492974 
 473   1878.1297266241 
 474   1938.96254866436 
 475   2012.99233696892 
 476   2080.20424303199 
 477   2138.30712638046 
 478   2208.26454293944 
 479   2265.99504555772 
 480   2303.60330206311 
 481   2346.85736606303 
 482   2395.51917229533 
 483   2427.96454634611 
 484   2426.42073340526 
 485   2423.99026432399 
 486   2416.86868568492 
 487   2384.70094370031 
 488   2348.88738697451 
 489   2311.91310117967 
 490   2266.88377842616 
 491   2217.07377726473 
 492   2173.03123138554 
 493   2135.06993405258 
 494   2088.14687738728 
 495   2031.47025415792 
 496   1982.58024066942 
 497   1960.35139596371 
 498   1937.18498279721 
 499   1904.11038807328 
 500   1873.84293386477 
 501   1851.50202134801 
 502   1832.35892343986 
 503   1816.53766894812 
 504   1818.77239147193 
 505   1814.91058215334 
 506   1790.75442633875 
 507   1769.44534674015 
 508   1749.59673648983 
 509   1727.80229524538 
 510   1705.54456807415 
 511   1674.22253684216 
 512   1641.11599617657 
 513   1616.15409991835 
 514   1580.99755670304 
 515   1559.90115250354 
 516   1570.83151100098 
 517   1572.10234024622 
 518   1564.89753735601 
 519   1568.4610027008 
 520   1591.85277198927 
 521   1618.80569848398 
 522   1634.3082617562 
 523   1641.92838829503 
 524   1673.95248947398 
 525   1716.61150494922 
 526   1743.54439935503 
 527   1783.00499466543 
 528   1833.05300736571 
 529   1879.80437120538 
 530   1923.97607269608 
 531   1976.19975715128 
 532   2047.7822593178 
 533   2141.39181005262 
 534   2237.91304512103 
 535   2327.45258254406 
 536   2413.35984767206 
 537   2502.47047674807 
 538   2603.4694677232 
 539   2707.30408318607 
 540   2782.21721499939 
 541   2862.47143738583 
 542   2960.79795872725 
 543   3037.43967407042 
 544   3090.07100716059 
 545   3127.18045469682 
 546   3151.94153987428 
 547   3154.02532481614 
 548   3131.85557238959 
 549   3102.06360439471 
 550   3090.80738542353 
 551   3048.79975526101 
 552   2957.23154033075 
 553   2866.63935970323 
 554   2788.17338670797 
 555   2703.35407177171 
 556   2598.91649430119 
 557   2513.13886719261 
 558   2440.12730379288 
 559   2356.47128771043 
 560   2266.95655866115 
 561   2197.44165395605 
 562   2144.67423264633 
 563   2075.80780984155 
 564   2011.16684351621 
 565   1964.97012104558 
 566   1931.28225908072 
 567   1896.24372679876 
 568   1865.71845224202 
 569   1846.82011250914 
 570   1829.48596708401 
 571   1798.48673931273 
 572   1764.70026863677 
 573   1754.09857965407 
 574   1746.65907914865 
 575   1733.61971252493 
 576   1729.0848612669 
 577   1757.13782971105 
 578   1794.33001812228 
 579   1827.61145155145 
 580   1883.69599849307 
 581   1968.72120448351 
 582   2079.8838316365 
 583   2216.44122719468 
 584   2388.30760136912 
 585   2602.37676368178 
 586   2864.21823072957 
 587   3181.49337748299 
 588   3560.07405435097 
 589   4007.63211898073 
 590   4530.89619397569 
 591   5123.70952162493 
 592   5770.42632521416 
 593   6441.97815599643 
 594   7096.19694831623 
 595   7722.61814676137 
 596   8308.87870031207 
 597   8818.07630465012 
 598   9200.17918919381 
 599   9441.80912280738 
 600   9543.09533091219 
 601   9468.01090825649 
 602   9239.22209061301 
 603   8889.96127735275 
 604   8422.31870397134 
 605   7840.24919790863 
 606   7183.81872777183 
 607   6510.3822383164 
 608   5837.69941183157 
 609   5167.20858684008 
 610   4537.80594871428 
 611   4021.98717137132 
 612   3518.30578437896 
 613   3026.74484894355 
 614   2654.846828366 
 615   2366.00483313237 
 616   2125.92719445402 
 617   1926.65308545087 
 618   1772.15525597037 
 619   1654.28943054913 
 620   1563.79063129764 
 621   1493.88578003517 
 622   1435.59860554829 
 623   1395.8674334628 
 624   1379.00684124206 
 625   1367.4952212132 
 626   1349.38147470491 
 627   1329.86699561605 
 628   1317.20347744534 
 629   1285.31601823126 
 630   1241.21384337498 
 631   1204.61120594369 
 632   1175.23551813342 
 633   1162.79399589054 
 634   1154.52899721351 
 635   1128.10304331886 
 636   1113.6249949532 
 637   1108.96991156053 
 638   1107.10170095134 
 639   1129.24013304649 
 640   1155.33959031933 
 641   1168.37264207073 
 642   1166.2959714006 
 643   1142.21188924329 
 644   1127.69755619668 
 645   1136.67481175377 
 646   1130.70543091926 
 647   1129.36505822485 
 648   1142.68417276677 
 649   1154.96558909532 
 650   1156.87444255749 
 651   1164.77497077108 
 652   1192.5020088333 
 653   1229.96343773507 
 654   1260.25366769476 
 655   1286.35182948247 
 656   1322.15504854529 
 657   1365.98362330519 
 658   1411.4293569376 
 659   1456.5804806192 
 660   1504.69283149677 
 661   1551.39093314454 
 662   1585.68465566516 
 663   1605.96543069647 
 664   1634.58152598091 
 665   1687.2189276609 
 666   1719.65865161793 
 667   1684.22950363284 
 668   1692.85552301189 
 669   1726.04676862004 
 670   1731.07481886114 
 671   1746.32096316236 
 672   1759.35254137128 
 673   1760.97575523041 
 674   1751.62641418965 
 675   1715.09256359323 
 676   1684.08906788226 
 677   1674.95681406135 
 678   1660.68013233137 
 679   1647.38753895278 
 680   1613.2718905046 
 681   1554.62160757023 
 682   1529.94059001065 
 683   1486.77606446927 
 684   1484.70204705208 
 685   1512.69512872392 
 686   1048.29545536952 
 687   626.376803083831 
 688   658.986679365597 
 689   636.211393222809 
 690   614.934029349942 
 691   618.591935263832 
 692   591.47085947187 
 693   600.319583049719 
 694   514.985005618312 
 695   582.191023747914 
 696   1110.17940034081 
 697   1267.6575041603 
 698   1161.40370745999 
 699   1168.25881391461 
 700   1156.61278314856 
 701   1130.58165923677 
 702   1102.6875789767 
 703   1068.86616730748 
 704   1048.49426863439 
 705   1036.56240194638 
 706   1029.02910596673 
 707   1027.58388266351 
 708   1019.05040950935 
 709   1007.49783325087 
 710   997.142528778976 
 711   984.099500931828 
 712   986.745034404637 
 713   1006.69094682813 
 714   1012.15158004187 
 715   986.994917361391 
 716   1149.90772965956 
 717   1353.26073487649 
 718   1351.54293430466 
 719   1494.63196838373 
 720   986.149286378489 
 721   27.6812287744119 
 722  -3.36136588935829 
 723   117.377495400291 
 724   112.163763413762 
 725   135.175133198941 
 726   148.050702081705 
 727   188.711856990344 
 728   93.2920376060868 
 729   46.4843710845887 
 730   878.630282393928 
 731   1404.26832831441 
 732   1273.57423599752 
 733   1282.52529580915 
 734   1324.80278185936 
 735   1346.22890230013 
 736   1359.83142741373 
 737   1358.6782680601 
 738   1364.60854847647 
 739   1377.35548501931 
 740   1393.16643840917 
 741   1416.85584505473 
 742   1418.13092501463 
 743   1411.19443483535 
 744   1420.07315762564 
 745   1425.61460445462 
 746   1437.22080402035 
 747   1462.2618253 
 748   1484.09637299534 
 749   1470.446230384 
 750   1466.1001928141 
 751   1484.78882301649 
 752   1489.18340889131 
 753   1474.741614821 
 754   1467.88277525575 
 755   1472.15804138767 
 756   1455.03309335356 
 757   1405.22803149301 
 758   1370.71101706625 
 759   1369.0324436828 
 760   1348.82115125348 
 761   1312.79167760028 
 762   1292.42379616656 
 763   1296.07421241496 
 764   1290.32957889147 
 765   1284.45335898248 
 766   1305.98663230537 
 767   1353.17194110803 
 768   1376.33086064781 
 769   1386.84599470339 
 770   1425.15035559592 
 771   1498.51213967446 
 772   1545.49708750494 
 773   1574.07147727053 
 774   1615.72488721884 
 775   1678.94512466807 
 776   1736.27980155222 
 777   1799.67885782201 
 778   1881.5080610207 
 779   1975.13471084657 
 780   2073.48296832833 
 781   2182.53065540741 
 782   2297.20887992477 
 783   2410.75594285736 
 784   2556.66717276563 
 785   2711.99356128995 
 786   2865.7995661196 
 787   3042.35691266085 
 788   3220.53208211746 
 789   3419.43144768943 
 790   3644.11366807555 
 791   3859.88635801961 
 792   4068.93739716331 
 793   4268.9411880111 
 794   4450.48075111784 
 795   4602.73715915248 
 796   4713.020166213 
 797   4802.31280721538 
 798   4865.1868416006 
 799   4861.00600956196 
 800   4852.80961272831 
 801   4864.83371925173 
 802   4880.1106399943 
 803   4894.00941707905 
 804   4956.54126568057 
 805   5077.17329450048 
 806   5229.38259474005 
 807   5392.29254893243 
 808   5577.91092199191 
 809   5768.64107231276 
 810   5946.33020134103 
 811   6115.22468328969 
 812   6235.10429082413 
 813   6283.77878752836 
 814   6264.15368713325 
 815   6188.5313531745 
 816   6067.92377432081 
 817   5904.69627192375 
 818   5709.32328074736 
 819   5507.6667471259 
 820   5312.53017059694 
 821   5153.10871520223 
 822   5061.1509808996 
 823   5058.0823875529 
 824   5174.17486893818 
 825   5406.50677400271 
 826   5753.36797521913 
 827   6239.49900084668 
 828   6876.58136589706 
 829   7687.3522437466 
 830   8683.52467821843 
 831   9849.01520064958 
 832   11161.0853580381 
 833   12612.1112834349 
 834   14220.7954897594 
 835   16001.3339819497 
 836   17888.1145230754 
 837   19808.2242066105 
 838   21711.3394360774 
 839   23569.9375439385 
 840   25354.1490790969 
 841   26989.2260398044 
 842   28408.2493063585 
 843   29517.7325607115 
 844   30132.5848953015 
 845   30394.7128899326 
 846   30364.0437856458 
 847   29942.4538027969 
 848   29140.2784244628 
 849   27804.6747533765 
 850   26090.8286650929 
 851   24282.8682004276 
 852   22304.0152986283 
 853   20302.6982900938 
 854   18286.9262235929 
 855   16216.0992665472 
 856   14249.9865155863 
 857   12401.8851381565 
 858   10848.7345468885 
 859   9652.16175071704 
 860   8551.63530121089 
 861   7617.83386871249 
 862   6906.41336264376 
 863   6410.37942498025 
 864   6115.10125764644 
 865   5983.28997367875 
 866   6010.1365187562 
 867   6168.49303426864 
 868   6391.88283819801 
 869   6644.09142796919 
 870   6925.25875620618 
 871   7226.04556865246 
 872   7511.60411852388 
 873   7744.55676934113 
 874   7906.78420657937 
 875   7982.93610174578 
 876   7961.07890436859 
 877   7844.16469275858 
 878   7643.1518983549 
 879   7370.6613662478 
 880   7047.67815829141 
 881   6703.20608992039 
 882   6348.73538049485 
 883   6004.74651420775 
 884   5698.53203847436 
 885   5451.33367806351 
 886   5269.52383146796 
 887   5158.12838971425 
 888   5171.18684173757 
 889   5318.52629780315 
 890   5445.18179163105 
 891   5663.90934808403 
 892   5989.15191105804 
 893   6322.34372237123 
 894   6657.15549207896 
 895   6956.01824388449 
 896   7215.19254922726 
 897   7428.63088575342 
 898   7551.60985790843 
 899   7561.83615621797 
 900   7441.41888013416 
 901   7210.80211194546 
 902   6909.69685940417 
 903   6531.93640520401 
 904   6145.34413789369 
 905   5787.8118612005 
 906   5430.62327682946 
 907   5058.77637849788 
 908   4810.14558749277 
 909   4616.50913876471 
 910   4422.99731410674 
 911   4363.11100960997 
 912   4373.74404484338 
 913   4421.66512684428 
 914   4499.81688421606 
 915   4612.59119695464 
 916   4797.84037118651 
 917   4991.70187717763 
 918   5192.30912613482 
 919   5425.2006835937 
 920   5644.22385431117 
 921   5871.42636378284 
 922   6102.02877081073 
 923   6315.80503931255 
 924   6504.20533889951 
 925   6654.91611777649 
 926   6783.86528063374 
 927   6903.14245715791 
 928   7009.1009040535 
 929   7097.8573345544 
 930   7174.14564473582 
 931   7248.9769370897 
 932   7315.25275213415 
 933   7362.84033995792 
 934   7447.3963700247 
 935   7548.21737354461 
 936   7619.59556968431 
 937   7670.14043551305 
 938   7758.9889797165 
 939   7812.23680497594 
 940   7798.48653167716 
 941   7768.48908487697 
 942   7752.40503809248 
 943   7636.15095772712 
 944   7469.473312452 
 945   7291.12650890112 
 946   7050.33369095118 
 947   6737.37136271316 
 948   6415.9253209372 
 949   6112.98070275844 
 950   5799.67334505836 
 951   5453.98408891334 
 952   5135.08465378589 
 953   4837.13469695803 
 954   4581.54207077311 
 955   4394.66776409759 
 956   4212.71647875709 
 957   4057.54471025326 
 958   3930.8938800874 
 959   3805.38836872072 
 960   3678.36351223926 
 961   3595.26273597692 
 962   3511.7588260513 
 963   3394.02875054207 
 964   3255.70834432779 
 965   3116.2304484483 
 966   2988.32844063115 
 967   2850.66120816981 
 968   2715.04222753669 
 969   2613.94813135509 
 970   2506.9722046876 
 971   2427.83799502414 
 972   2361.10717494174 
 973   2290.20494873233 
 974   2251.82264917001 
 975   2198.33650499038 
 976   2152.60858222037 
 977   2123.25773250299 
 978   2095.6226342872 
 979   2097.72038724839 
 980   2113.1820189891 
 981   2130.7594625195 
 982   2165.73406440183 
 983   2229.49556239047 
 984   2291.70845732943 
 985   2381.89458738374 
 986   2493.22227000662 
 987   2614.05926839152 
 988   2764.4030610841 
 989   2909.91589651495 
 990   3148.89371796703 
 991   3449.33376230983 
 992   3744.99921335921 
 993   4159.49016362724 
 994   4622.85321199899 
 995   5118.61832103542 
 996   5648.55730610831 
 997   6196.23278809844 
 998   6760.44683986773 
 999   7208.66740293455 
 1000   7618.54043214928 
 1001   8006.43815177304 
 1002   8208.7647275559 
 1003   8284.19328758401 
 1004   8245.71111599507 
 1005   8080.03169112208 
 1006   7792.13354511478 
 1007   7416.19864943839 
 1008   7001.8993405271 
 1009   6565.46055645757 
 1010   6122.13718613829 
 1011   5720.45181901454 
 1012   5417.19973210334 
 1013   5185.22766345958 
 1014   5028.34708554872 
 1015   4892.2716939635 
 1016   4765.33752899296 
 1017   4779.05167080988 
 1018   4824.7057465498 
 1019   4894.63562510758 
 1020   4982.25578912879 
