05-29-2020  12:05:12
Wavenumber (cm-1)  CCD Output
 251   1593.69458111132 
 252   1631.04266617855 
 253   1659.50493351763 
 254   1691.20837023695 
 255   1726.10180942598 
 256   1771.69435886329 
 257   1835.5226699226 
 258   1880.31720586723 
 259   1895.31950689812 
 260   1911.23261371977 
 261   1930.98301216221 
 262   1952.13446696907 
 263   1977.67863565686 
 264   1999.96570167318 
 265   2009.42025156253 
 266   2002.34721324335 
 267   1986.93058958308 
 268   1969.39031762343 
 269   1943.71947892413 
 270   1930.45645593775 
 271   1943.02618367799 
 272   1943.22259780026 
 273   1927.83010924519 
 274   1915.12326186919 
 275   1903.9185369775 
 276   1898.12020267292 
 277   1903.14599725169 
 278   1908.52744253721 
 279   1919.17315861825 
 280   1944.82873407454 
 281   1951.33331144106 
 282   1936.56136739013 
 283   1934.33029919657 
 284   1943.10287095253 
 285   1949.55100273796 
 286   1942.36413548346 
 287   1929.03309658603 
 288   1924.64674565167 
 289   1940.89483784135 
 290   1957.7552831841 
 291   1968.84285074537 
 292   1998.78807420719 
 293   2027.25391437234 
 294   2036.01007223429 
 295   2042.84406636086 
 296   2059.06301556264 
 297   2084.82930984915 
 298   2109.02582666556 
 299   2126.66668928067 
 300   2140.23141733829 
 301   2157.35806201474 
 302   2163.36668548043 
 303   2149.14205869593 
 304   2146.65608280678 
 305   2162.80092883188 
 306   2181.15896809447 
 307   2179.5286540151 
 308   2175.01369764884 
 309   2191.17835459258 
 310   2194.21800499749 
 311   2182.04291101515 
 312   2179.00285322508 
 313   2192.7639052861 
 314   2212.84356002572 
 315   2222.06146580952 
 316   2221.51005730279 
 317   2223.28485275373 
 318   2237.9899967809 
 319   2250.1061789394 
 320   2267.45702295274 
 321   2314.22892602361 
 322   2373.84288364519 
 323   2428.42155195534 
 324   2473.93555980461 
 325   2527.41461003031 
 326   2598.25485092426 
 327   2681.53192673019 
 328   2768.61357046656 
 329   2861.32308214154 
 330   2968.42505496843 
 331   3074.98308319226 
 332   3165.85662805304 
 333   3243.3526200532 
 334   3354.67711066018 
 335   3501.59097706329 
 336   3630.87346804738 
 337   3754.77957413618 
 338   3894.25993312688 
 339   4053.75701618139 
 340   4229.97435816769 
 341   4408.91810009939 
 342   4576.07172569981 
 343   4766.93780269475 
 344   4973.70968516649 
 345   5132.29883452385 
 346   5274.56460130877 
 347   5428.28162273606 
 348   5573.26590206877 
 349   5684.77574871737 
 350   5757.44635125225 
 351   5810.12941845204 
 352   5854.99273419202 
 353   5880.67422619132 
 354   5859.13432764809 
 355   5814.20144804079 
 356   5769.07402932773 
 357   5719.84473466856 
 358   5643.57029990839 
 359   5534.69079454346 
 360   5417.03778117468 
 361   5315.11076151417 
 362   5223.04816165126 
 363   5106.22392470056 
 364   4972.13023225071 
 365   4835.58161830208 
 366   4704.23953551631 
 367   4590.19700507099 
 368   4489.1098413979 
 369   4383.59941678046 
 370   4293.49333176145 
 371   4206.12729044095 
 372   4078.00905576064 
 373   3952.42480701452 
 374   3865.54236235093 
 375   3810.77766206441 
 376   3752.53320890911 
 377   3672.82630606698 
 378   3583.30306159002 
 379   3508.09321012351 
 380   3442.87921378101 
 381   3364.13755312006 
 382   3294.15906044028 
 383   3241.6691606788 
 384   3191.26081693545 
 385   3127.2993615412 
 386   3061.73139634862 
 387   3017.92773946874 
 388   2976.67903732639 
 389   2929.91637499959 
 390   2888.29750428622 
 391   2866.48258297565 
 392   2855.02698743876 
 393   2831.66696787984 
 394   2793.86135321376 
 395   2761.1159960237 
 396   2754.13962442471 
 397   2761.87127022175 
 398   2765.02682929511 
 399   2755.43785311869 
 400   2752.97143269059 
 401   2748.15935091027 
 402   2731.65101182331 
 403   2733.66922750898 
 404   2751.8668681475 
 405   2769.31527207613 
 406   2779.98422628095 
 407   2772.25245376685 
 408   2744.99479789503 
 409   2719.37833957893 
 410   2704.66411210571 
 411   2697.92090544955 
 412   2686.3918331064 
 413   2654.17183210304 
 414   2610.10451105789 
 415   2587.078505942 
 416   2558.08887354583 
 417   2516.79372953097 
 418   2498.58946402135 
 419   2495.49478405796 
 420   2491.69139636856 
 421   2482.76332470315 
 422   2484.64392218631 
 423   2510.45793229704 
 424   2556.46509281311 
 425   2589.0627301023 
 426   2614.00466073109 
 427   2653.90059246126 
 428   2673.91190552613 
 429   2694.48476720705 
 430   2745.81947326701 
 431   2769.77695110158 
 432   2770.47743904878 
 433   2777.82225531029 
 434   2779.06823345439 
 435   2784.56326879508 
 436   2802.65157001835 
 437   2815.23507606795 
 438   2836.32411733511 
 439   2865.61677360833 
 440   2868.57321445467 
 441   2877.86926216562 
 442   2908.90002288037 
 443   2930.01711481087 
 444   2953.09697370672 
 445   2973.93768678297 
 446   2970.14745943777 
 447   2976.36460268706 
 448   2988.4933871597 
 449   2973.0197208671 
 450   2956.87245374287 
 451   2950.57639217842 
 452   2943.94335658999 
 453   2931.34950091922 
 454   2919.68772259144 
 455   2915.4831865008 
 456   2908.83600318022 
 457   2888.64131158817 
 458   2862.45684537224 
 459   2861.68402144641 
 460   2868.79229746704 
 461   2862.14485112029 
 462   2846.73926316829 
 463   2840.06693870904 
 464   2834.6945404372 
 465   2803.55578929533 
 466   2770.05753944416 
 467   2746.46542973188 
 468   2723.24141852182 
 469   2693.48995445519 
 470   2654.71440579675 
 471   2610.72542046534 
 472   2572.50299933283 
 473   2534.57822110709 
 474   2491.17863475391 
 475   2454.2949899003 
 476   2423.89944453498 
 477   2395.93072741506 
 478   2369.5713831526 
 479   2341.15401960538 
 480   2313.23235374624 
 481   2294.14714939249 
 482   2279.27350315039 
 483   2259.31730187449 
 484   2232.27158365645 
 485   2220.79320528001 
 486   2224.09309158756 
 487   2224.74700006791 
 488   2216.93377679896 
 489   2208.29362303173 
 490   2209.94730283256 
 491   2224.17284863943 
 492   2232.10782942995 
 493   2231.10922008972 
 494   2244.28598227767 
 495   2249.58682863342 
 496   2246.48506592092 
 497   2262.12049468093 
 498   2281.86747807645 
 499   2305.76217306978 
 500   2343.95837388121 
 501   2381.11717534829 
 502   2419.94077890365 
 503   2463.88673090874 
 504   2495.73488301642 
 505   2536.30582858526 
 506   2595.70695747907 
 507   2648.5867797196 
 508   2708.67628689631 
 509   2772.68073752505 
 510   2812.09158528094 
 511   2832.83404317454 
 512   2869.98898127325 
 513   2947.88588442776 
 514   3023.85566792203 
 515   3113.09934670384 
 516   3227.62733838278 
 517   3307.51811356877 
 518   3380.75238664394 
 519   3476.1126186435 
 520   3574.68335536698 
 521   3697.66503823343 
 522   3826.589145239 
 523   3915.81746574144 
 524   4003.25232572806 
 525   4091.38421163385 
 526   4161.95946741216 
 527   4235.20022973546 
 528   4303.43192048716 
 529   4357.07877354003 
 530   4404.19360981317 
 531   4410.3077040645 
 532   4382.06698399132 
 533   4375.29861133686 
 534   4377.89927926257 
 535   4343.81969695561 
 536   4255.18361339345 
 537   4193.82620804638 
 538   4152.59183715747 
 539   4093.61846037861 
 540   4034.46468296871 
 541   3994.70954407355 
 542   3961.79102302015 
 543   3899.94528354619 
 544   3835.82127598139 
 545   3790.53223975364 
 546   3759.3553868427 
 547   3722.2837397406 
 548   3671.39368499058 
 549   3610.37966186317 
 550   3547.25377169869 
 551   3485.10114629519 
 552   3428.1100663536 
 553   3380.76511502455 
 554   3331.33681140219 
 555   3269.52030177398 
 556   3198.18548552702 
 557   3139.79848320993 
 558   3092.96096910186 
 559   3046.11038234155 
 560   2999.65212558643 
 561   2962.45110402131 
 562   2925.26395576178 
 563   2869.86180111474 
 564   2837.98619918757 
 565   2831.85432103218 
 566   2814.59747034258 
 567   2766.18045938264 
 568   2704.49026683615 
 569   2657.60266146303 
 570   2632.6623882627 
 571   2600.60756839145 
 572   2564.03243658372 
 573   2548.32458066949 
 574   2505.37028035106 
 575   2454.26454354971 
 576   2434.95753743237 
 577   2413.8382376033 
 578   2399.89299329785 
 579   2395.92009811056 
 580   2373.64819799279 
 581   2346.89099041403 
 582   2322.66654507632 
 583   2297.03072121745 
 584   2280.78010641947 
 585   2266.26481374578 
 586   2248.76687638573 
 587   2241.25336892211 
 588   2215.84695667491 
 589   2174.52808291049 
 590   2156.12607090396 
 591   2159.73148478986 
 592   2177.19922932212 
 593   2192.32258699586 
 594   2176.95319051837 
 595   2148.9677463085 
 596   2127.64196568977 
 597   2109.14441069688 
 598   2094.57728823405 
 599   2090.16639023942 
 600   2090.52384468328 
 601   2060.87510296989 
 602   2004.42306941877 
 603   1948.95227767155 
 604   1917.58232964311 
 605   1889.69975517611 
 606   1857.3756448183 
 607   1835.51826291764 
 608   1833.04564740622 
 609   1810.17980684201 
 610   1751.78524920317 
 611   1715.28202663772 
 612   1709.27605821094 
 613   1713.9025746267 
 614   1709.55248188786 
 615   1705.23405905944 
 616   1697.85594997563 
 617   1683.65742096244 
 618   1672.57789904436 
 619   1658.21292400233 
 620   1645.84151669089 
 621   1647.07346452899 
 622   1638.2611828061 
 623   1619.52630971733 
 624   1605.13349752506 
 625   1598.54613516456 
 626   1592.91083232687 
 627   1581.00465276275 
 628   1568.41045428085 
 629   1584.98546815077 
 630   1597.1268634798 
 631   1576.7142153611 
 632   1571.48985919106 
 633   1575.75918796478 
 634   1574.31881517724 
 635   1566.31353504224 
 636   1554.71065589458 
 637   1542.69673719866 
 638   1528.32218264639 
 639   1506.87735873802 
 640   1502.0029814239 
 641   1502.31748055215 
 642   1476.14556735874 
 643   1458.32530672703 
 644   1456.83522818491 
 645   1459.82534962527 
 646   1462.12313512118 
 647   1469.90352485962 
 648   1486.53780147407 
 649   1506.16754112391 
 650   1516.88468787053 
 651   1533.48124212125 
 652   1561.66647060084 
 653   1579.91315982881 
 654   1594.73913793228 
 655   1599.40705842278 
 656   1603.00395378435 
 657   1669.20089213657 
 658   1700.90866461795 
 659   1660.80069879676 
 660   1650.62680343869 
 661   1647.19122701734 
 662   1623.66580513408 
 663   1585.94183902842 
 664   1565.4218636518 
 665   1596.62924664123 
 666   1604.79072279431 
 667   1499.79153291601 
 668   1479.20737512261 
 669   1521.13439283513 
 670   1528.00297338177 
 671   1540.03312187401 
 672   1576.92368992023 
 673   1613.73734188669 
 674   1616.53395652337 
 675   1605.3333376862 
 676   1619.10518264047 
 677   1659.48290584734 
 678   1682.62715543354 
 679   1680.61966881433 
 680   1665.92077141694 
 681   1656.18941917556 
 682   1657.34884443078 
 683   1639.18133746088 
 684   1658.28867845167 
 685   1678.53510047309 
 686   1236.4855239096 
 687   834.01168585464 
 688   867.600685169826 
 689   887.362937000108 
 690   883.393151070823 
 691   887.346172312398 
 692   889.503632141369 
 693   919.658398690733 
 694   881.479535024965 
 695   1012.64706580645 
 696   1572.80541565682 
 697   1788.94298027778 
 698   1744.30338723176 
 699   1791.6963958605 
 700   1843.9245240831 
 701   1892.43482377724 
 702   1945.6994477028 
 703   1996.75256438302 
 704   2035.93628712417 
 705   2093.44561427813 
 706   2180.29049771147 
 707   2275.51543178711 
 708   2370.36866491819 
 709   2473.83327224919 
 710   2593.37593497181 
 711   2721.67327870933 
 712   2847.51660635039 
 713   2990.88527240827 
 714   3154.56868181497 
 715   3315.83321031178 
 716   3680.73223325699 
 717   4082.9297424581 
 718   4275.94365544177 
 719   4651.87060436127 
 720   4370.09426166929 
 721   3644.07676257838 
 722   3919.75754467155 
 723   4310.88546315948 
 724   4590.09674997953 
 725   4878.47102998058 
 726   4939.01363308708 
 727   5190.82876053166 
 728   5470.06885369613 
 729   5744.8974721567 
 730   6963.57761503133 
 731   7789.52300247139 
 732   7835.08429173859 
 733   8006.12497647691 
 734   8146.57096111186 
 735   8185.14338304007 
 736   8147.36623435478 
 737   8039.87681679472 
 738   7892.02731352196 
 739   7712.08910525014 
 740   7487.47096279155 
 741   7208.8876771432 
 742   6911.35880842664 
 743   6590.4253771997 
 744   6247.98158097172 
 745   5947.33462935573 
 746   5688.38615769056 
 747   5441.48605034603 
 748   5208.99627633903 
 749   5053.32788426199 
 750   4910.42491429714 
 751   4776.00723735535 
 752   4711.02856165092 
 753   4662.26201138983 
 754   4633.94915417013 
 755   4635.74728955735 
 756   4648.17774241171 
 757   4672.62826322199 
 758   4707.27777038438 
 759   4749.20308234178 
 760   4794.19243798665 
 761   4821.70132723341 
 762   4857.01566500588 
 763   4920.49110445282 
 764   4981.18817408303 
 765   5037.88887121882 
 766   5100.13538252406 
 767   5159.64234954563 
 768   5182.12124334258 
 769   5173.26452323459 
 770   5167.46552601211 
 771   5176.35769021521 
 772   5151.76433267714 
 773   5111.42685792434 
 774   5052.35894606377 
 775   4955.78078667879 
 776   4861.05592029893 
 777   4769.11043855896 
 778   4670.00480977291 
 779   4560.92836793994 
 780   4438.94751255127 
 781   4323.99630548523 
 782   4214.13332117718 
 783   4093.38336347684 
 784   3997.79689657583 
 785   3898.13913208724 
 786   3787.17697102364 
 787   3710.11733977886 
 788   3656.52286310201 
 789   3599.90081073177 
 790   3532.91213537502 
 791   3469.04551006774 
 792   3402.3760381186 
 793   3346.77651060553 
 794   3314.15712882223 
 795   3291.70865703647 
 796   3256.73658363422 
 797   3218.99392300067 
 798   3187.22170209458 
 799   3150.33775781368 
 800   3129.1471600402 
 801   3107.78310578679 
 802   3069.33113065812 
 803   3031.98987022667 
 804   3003.19262309771 
 805   2978.95795772747 
 806   2949.10362323109 
 807   2910.58125825934 
 808   2889.36685251364 
 809   2867.21974408096 
 810   2836.23685314808 
 811   2832.89569216932 
 812   2823.34230435991 
 813   2802.63131559312 
 814   2788.21987282013 
 815   2781.40285285564 
 816   2767.63204912444 
 817   2764.66254393594 
 818   2776.80073236461 
 819   2776.52415469544 
 820   2806.69875937022 
 821   2845.10860676678 
 822   2859.888267269 
 823   2871.96872628398 
 824   2883.5306189762 
 825   2916.75454900028 
 826   2971.17807730871 
 827   3012.34441108256 
 828   3061.8868582035 
 829   3097.17188291052 
 830   3115.8273218876 
 831   3167.10008738896 
 832   3242.49959792866 
 833   3324.64601092217 
 834   3407.08780923747 
 835   3498.03275103615 
 836   3614.91048044656 
 837   3759.35368204796 
 838   3917.43050102924 
 839   4082.78651281975 
 840   4284.57187136202 
 841   4500.58331343804 
 842   4719.47863895773 
 843   4958.83808659303 
 844   5210.41011459677 
 845   5478.62659895231 
 846   5778.07881646101 
 847   6107.47963341092 
 848   6428.18909698356 
 849   6733.49434596463 
 850   7065.26616183671 
 851   7456.32837189135 
 852   7866.21041443583 
 853   8286.04794322207 
 854   8701.79554019638 
 855   9089.80873949517 
 856   9443.69426618104 
 857   9792.55682787168 
 858   10160.7333065514 
 859   10512.0067643414 
 860   10764.6099656919 
 861   10960.9152234035 
 862   11127.8929865326 
 863   11265.3148122895 
 864   11380.7407635981 
 865   11495.5803205023 
 866   11588.6188736439 
 867   11673.0807031633 
 868   11802.6145308 
 869   11958.3985055096 
 870   12129.835579183 
 871   12330.7228414916 
 872   12570.1931971619 
 873   12820.4609288198 
 874   13094.199783459 
 875   13409.7145586845 
 876   13759.9070805262 
 877   14107.9030479646 
 878   14422.0180281146 
 879   14722.982113003 
 880   15013.0245505785 
 881   15232.7291908962 
 882   15392.9944739947 
 883   15469.6628964224 
 884   15427.8395110493 
 885   15258.6099445104 
 886   14961.8604079336 
 887   14576.0938260728 
 888   14098.494398399 
 889   13500.0673005822 
 890   12830.8584396707 
 891   12149.532905128 
 892   11467.2439901213 
 893   10799.3232117733 
 894   10217.6829174911 
 895   9710.98124364468 
 896   9284.07537242439 
 897   8956.58009134858 
 898   8731.05974085075 
 899   8607.77246725534 
 900   8558.30271036253 
 901   8573.51305489388 
 902   8654.19805211971 
 903   8744.44462826259 
 904   8853.72506950113 
 905   8984.9420538909 
 906   9093.89955180321 
 907   9120.28751729913 
 908   9072.83994310157 
 909   9019.25570376241 
 910   8950.35581113228 
 911   8765.53244377232 
 912   8524.11093248477 
 913   8217.17121018543 
 914   7827.24855591428 
 915   7399.26480360528 
 916   6997.93207239632 
 917   6582.34797979744 
 918   6160.54768986652 
 919   5770.44287109384 
 920   5389.6169760815 
 921   5029.57564082483 
 922   4713.34628127606 
 923   4442.12121834337 
 924   4196.93462273082 
 925   3979.9878636913 
 926   3790.38979423425 
 927   3630.9732254957 
 928   3504.02823977206 
 929   3400.37706520807 
 930   3316.2677585684 
 931   3240.73285898461 
 932   3168.4678390165 
 933   3109.74066954826 
 934   3069.3888067085 
 935   3024.62102834284 
 936   2975.29870754384 
 937   2938.33945868869 
 938   2897.90999382111 
 939   2848.94641307019 
 940   2784.62585807859 
 941   2719.75657571033 
 942   2681.41117132798 
 943   2629.414942687 
 944   2603.35983755185 
 945   2591.8126103603 
 946   2552.27071159266 
 947   2549.36527701148 
 948   2536.31053639486 
 949   2543.03723605334 
 950   2586.83477952448 
 951   2592.52427852478 
 952   2589.01341813639 
 953   2571.07786385838 
 954   2547.90640907104 
 955   2540.03292816082 
 956   2527.65249198224 
 957   2538.8353980919 
 958   2542.89439482056 
 959   2523.88286866657 
 960   2527.60832226011 
 961   2547.73537784731 
 962   2569.91643166243 
 963   2585.51807433037 
 964   2595.57415703125 
 965   2608.31291134954 
 966   2623.37101320438 
 967   2646.86536262995 
 968   2679.24909202334 
 969   2711.86043300377 
 970   2748.17491652335 
 971   2815.16075101889 
 972   2875.5334521857 
 973   2910.50272753858 
 974   2977.7150591375 
 975   3047.36608673688 
 976   3098.01906937357 
 977   3153.22928562948 
 978   3226.62584236394 
 979   3274.41690810373 
 980   3328.20209154907 
 981   3406.58329090312 
 982   3498.81593846685 
 983   3580.30741611796 
 984   3632.35526962425 
 985   3710.82263543325 
 986   3788.97283772046 
 987   3839.36864810676 
 988   3913.03439220804 
 989   3963.79497570198 
 990   4014.19698802013 
 991   4058.15525077231 
 992   4084.65069904555 
 993   4151.84505467319 
 994   4217.15189227531 
 995   4293.8817259829 
 996   4379.59603566536 
 997   4448.0118747409 
 998   4542.76278504647 
 999   4648.61013587662 
 1000   4798.76080133488 
 1001   4997.80162161483 
 1002   5185.86203027188 
 1003   5372.64569727899 
 1004   5602.33480418 
 1005   5883.14336784902 
 1006   6196.68657054359 
 1007   6538.86102492209 
 1008   6918.81286506725 
 1009   7315.39221062043 
 1010   7725.5637811839 
 1011   8173.09763260085 
 1012   8664.62550315319 
 1013   9155.15554565525 
 1014   9659.60759429269 
 1015   10178.0624759502 
 1016   10679.4995816023 
 1017   11168.1071302668 
 1018   11682.6628710624 
 1019   12195.5569605908 
