05-29-2020  13:58:27
Wavenumber (cm-1)  CCD Output
 251   1620.21580525116 
 252   1647.26155009269 
 253   1674.46030312835 
 254   1678.82788215973 
 255   1679.16565551519 
 256   1697.12869990649 
 257   1740.24929174086 
 258   1783.87098433367 
 259   1813.54950393979 
 260   1837.02615844148 
 261   1859.02135175586 
 262   1878.92935725934 
 263   1891.79060355475 
 264   1899.94987755777 
 265   1908.99503776829 
 266   1924.10230978264 
 267   1945.75182431739 
 268   1966.69337857043 
 269   1971.85545695295 
 270   1975.70919947942 
 271   1994.26980038942 
 272   2007.78521017828 
 273   2018.86144787353 
 274   2039.68956435913 
 275   2058.57103563078 
 276   2078.00206634579 
 277   2106.66551015084 
 278   2128.01305780796 
 279   2149.08497364628 
 280   2191.23703971814 
 281   2232.49485268699 
 282   2265.67192158943 
 283   2303.82668885047 
 284   2334.72648654084 
 285   2360.21413503226 
 286   2399.92545018973 
 287   2436.5807960464 
 288   2461.80295515422 
 289   2491.52774814289 
 290   2519.96909295471 
 291   2551.61421326532 
 292   2610.69329649896 
 293   2664.31760010692 
 294   2690.81558056107 
 295   2723.91194006805 
 296   2762.34882043232 
 297   2789.1032143359 
 298   2796.31844874227 
 299   2802.78190271164 
 300   2818.96474444813 
 301   2812.8942210066 
 302   2779.02599051944 
 303   2734.59005908716 
 304   2703.86259765971 
 305   2681.09330038809 
 306   2648.6232499061 
 307   2609.76689977344 
 308   2580.46344715435 
 309   2566.97709044373 
 310   2534.17204247828 
 311   2492.53199486923 
 312   2470.55742983031 
 313   2433.54876964227 
 314   2393.47951547114 
 315   2383.04780988572 
 316   2349.36950305879 
 317   2300.38396365901 
 318   2286.20003876855 
 319   2265.07886073012 
 320   2231.49881583817 
 321   2221.73120754024 
 322   2228.90557198326 
 323   2239.71367354623 
 324   2247.91888827585 
 325   2258.79284108153 
 326   2282.18221869489 
 327   2321.7190057241 
 328   2348.20107253099 
 329   2361.21050209838 
 330   2392.16394681585 
 331   2432.21511463717 
 332   2469.47735908391 
 333   2505.57741184688 
 334   2557.82748184768 
 335   2627.8432533833 
 336   2693.06788463573 
 337   2728.60305444609 
 338   2729.85324240061 
 339   2723.65174348212 
 340   2768.45084906492 
 341   2870.42119799328 
 342   2972.38247437957 
 343   3082.62766212223 
 344   3225.26062503711 
 345   3406.79223920419 
 346   3587.29087496552 
 347   3760.49723457807 
 348   3984.07636109856 
 349   4323.72332853245 
 350   4720.15267790137 
 351   4999.79168201814 
 352   5237.52905215965 
 353   5515.48575100736 
 354   5807.90605693845 
 355   6052.64105388739 
 356   6257.25585573877 
 357   6499.12339399899 
 358   6693.28182291955 
 359   6803.92204775859 
 360   6910.92985288656 
 361   7011.67723208274 
 362   7078.47411983454 
 363   7091.57420140178 
 364   7044.73158363255 
 365   6955.84347322398 
 366   6859.66647113616 
 367   6754.83125413956 
 368   6631.69178909821 
 369   6491.00331015896 
 370   6363.31851811415 
 371   6251.29203718493 
 372   6128.70976641956 
 373   6028.03376727815 
 374   5983.04183079003 
 375   6003.18851854568 
 376   6069.10046395308 
 377   6158.73846719835 
 378   6267.96252832509 
 379   6443.08368562005 
 380   6698.19719650856 
 381   7008.33772391264 
 382   7371.62976294347 
 383   7782.13941104319 
 384   8221.07152646892 
 385   8660.08865109613 
 386   9111.62444774901 
 387   9607.3664490612 
 388   10115.7442747679 
 389   10599.1916241871 
 390   11033.746425791 
 391   11417.5314468719 
 392   11744.5560586647 
 393   12006.2664708426 
 394   12203.6899898798 
 395   12317.9668217585 
 396   12323.8000020365 
 397   12219.8312049458 
 398   12010.8777975639 
 399   11706.1157309223 
 400   11320.9701631569 
 401   10865.7709940366 
 402   10350.5785375473 
 403   9793.28435765123 
 404   9218.33797131785 
 405   8648.66018651004 
 406   8096.75128108147 
 407   7561.7131207782 
 408   7056.43210452613 
 409   6620.15558740204 
 410   6237.15429588819 
 411   5905.02589984236 
 412   5664.75356301387 
 413   5456.61284894893 
 414   5232.5655795251 
 415   5014.80790901907 
 416   4815.22160261124 
 417   4637.30868107079 
 418   4478.34125042242 
 419   4323.97931907999 
 420   4155.22025954663 
 421   3966.2610788662 
 422   3806.02353218901 
 423   3642.8443896717 
 424   3409.00586658949 
 425   3214.94103465118 
 426   3083.27943942329 
 427   2952.15527724436 
 428   2821.5647590509 
 429   2703.01224894902 
 430   2605.98597609763 
 431   2534.94307907868 
 432   2484.59179389805 
 433   2445.93339238733 
 434   2414.95884453164 
 435   2397.20415644015 
 436   2397.90297551437 
 437   2406.03865395602 
 438   2359.44177907342 
 439   2261.58973079004 
 440   2225.73060487306 
 441   2221.81869399332 
 442   2207.28486768786 
 443   2194.80547263592 
 444   2185.60290296836 
 445   2170.27329451727 
 446   2137.99562147587 
 447   2099.62871087827 
 448   2100.92827523962 
 449   2170.54130976035 
 450   2202.97720772541 
 451   2183.90510695414 
 452   2166.12247949068 
 453   2144.27099919572 
 454   2127.87546161711 
 455   2126.17473578018 
 456   2118.00326756177 
 457   2106.95219500413 
 458   2098.0327869469 
 459   2078.33409582448 
 460   2067.64506778683 
 461   2074.37359580492 
 462   2074.87512916002 
 463   2065.79833970691 
 464   2049.62257437187 
 465   2031.0201583692 
 466   2029.71099874171 
 467   2034.08819851279 
 468   2020.43250606915 
 469   2025.06231640804 
 470   2031.52722798483 
 471   2007.67255678879 
 472   1996.60493500268 
 473   1997.77431594084 
 474   1993.44030774534 
 475   1993.42516352734 
 476   1991.19013831809 
 477   1985.83439170933 
 478   1993.39791026257 
 479   1999.61226184093 
 480   1997.62098716868 
 481   1999.82407513853 
 482   2004.76162334506 
 483   2008.27169633776 
 484   2009.25278083703 
 485   2012.04411917 
 486   2018.57564101642 
 487   2026.40199746035 
 488   2029.42274851473 
 489   2028.26465636791 
 490   2028.04516431392 
 491   2032.7469054141 
 492   2034.04892673773 
 493   2033.38214749898 
 494   2045.86961240863 
 495   2050.26606260365 
 496   2035.93203951705 
 497   2016.64230317891 
 498   2005.86882544673 
 499   2003.73165398481 
 500   2004.35391490805 
 501   2012.91867084854 
 502   2020.30902829702 
 503   2021.65119701933 
 504   2036.28664218365 
 505   2054.71965097489 
 506   2073.87433207075 
 507   2113.09926380621 
 508   2148.57933406044 
 509   2176.55394033253 
 510   2214.93941731872 
 511   2223.67455756203 
 512   2229.82069106196 
 513   2283.30046357262 
 514   2329.02298491415 
 515   2405.45428551126 
 516   2540.89570194679 
 517   2640.43294749308 
 518   2765.49720863747 
 519   2947.25026304478 
 520   3108.64013632819 
 521   3338.53558406418 
 522   3639.20717765293 
 523   3924.98097049259 
 524   4277.44131622405 
 525   4691.8112445166 
 526   5110.89659293972 
 527   5557.98134584717 
 528   6017.97826441022 
 529   6477.01230704392 
 530   6948.54274410335 
 531   7351.08507331983 
 532   7689.12007434627 
 533   8051.78832818142 
 534   8316.56401667838 
 535   8433.06219955236 
 536   8457.00911128495 
 537   8443.32069954699 
 538   8381.53322847292 
 539   8238.80756362191 
 540   8015.44149211954 
 541   7747.19658357556 
 542   7458.90018573507 
 543   7145.47655295911 
 544   6802.64119093379 
 545   6453.53987830139 
 546   6123.93935476534 
 547   5785.46798007843 
 548   5440.69640440991 
 549   5112.84632451845 
 550   4814.05191982408 
 551   4531.34885284712 
 552   4255.83996589399 
 553   3998.79562058152 
 554   3780.75102807192 
 555   3593.03941211751 
 556   3412.46332710102 
 557   3249.96299453295 
 558   3114.42089584959 
 559   3002.44072721423 
 560   2899.81682397148 
 561   2808.87503774444 
 562   2739.48439239583 
 563   2695.27935192064 
 564   2654.97188878055 
 565   2631.94566156025 
 566   2645.73177815644 
 567   2655.32939955648 
 568   2670.53239028883 
 569   2723.3001846215 
 570   2823.37045761083 
 571   2949.73844736632 
 572   3091.03320298099 
 573   3267.96800785543 
 574   3531.10909534129 
 575   3832.23530783581 
 576   4121.38609556307 
 577   4488.84617112599 
 578   4941.03337262648 
 579   5432.9348914848 
 580   5929.03548138913 
 581   6462.91249159725 
 582   7033.12987526358 
 583   7599.05505267218 
 584   8143.73557342761 
 585   8644.35335375973 
 586   9074.76815625882 
 587   9429.49468237619 
 588   9790.85088759625 
 589   10125.3645918025 
 590   10297.7409649689 
 591   10358.1257486419 
 592   10340.9107785524 
 593   10217.5016267504 
 594   9936.84095162457 
 595   9623.45933731674 
 596   9311.22092922705 
 597   8869.051818904 
 598   8356.72013334763 
 599   7830.01483698166 
 600   7298.31401475904 
 601   6758.79842505732 
 602   6139.00717102434 
 603   5454.22867877755 
 604   4863.06045348233 
 605   4367.75998377477 
 606   3891.8158546488 
 607   3403.92140540384 
 608   3041.26274865179 
 609   2738.86009610505 
 610   2427.31198811896 
 611   2221.37186335387 
 612   2157.56941442933 
 613   2181.95993349344 
 614   2193.96792097807 
 615   2136.27680996879 
 616   2055.10615384906 
 617   2006.38723927052 
 618   1969.44276465628 
 619   1947.74492424585 
 620   1942.28761014003 
 621   1935.35785928609 
 622   1901.03506903742 
 623   1874.68392159121 
 624   1886.09228003265 
 625   1893.34029137067 
 626   1896.56725545531 
 627   1902.69653121389 
 628   1909.49672864896 
 629   1923.17696029659 
 630   1951.84154891605 
 631   2001.21648434868 
 632   2068.70037853248 
 633   2130.24314681424 
 634   2187.50006152466 
 635   2268.22427369722 
 636   2373.00205917039 
 637   2482.56918119078 
 638   2582.06702519881 
 639   2680.41217820771 
 640   2792.33179142209 
 641   2899.66812841408 
 642   2975.76507522848 
 643   3061.82406143197 
 644   3155.46723040366 
 645   3219.61561547301 
 646   3231.71137266939 
 647   3257.81268260768 
 648   3328.04225794496 
 649   3409.96604242185 
 650   3464.65695024708 
 651   3490.90594589217 
 652   3513.29913806382 
 653   3549.90644357947 
 654   3558.34676435777 
 655   3554.4563052646 
 656   3575.74926210629 
 657   3573.09897715333 
 658   3530.13825444947 
 659   3459.81118352708 
 660   3382.94862222263 
 661   3307.85809978382 
 662   3222.22560394488 
 663   3124.20179720049 
 664   3048.25654368423 
 665   2979.64927240785 
 666   2898.39757936912 
 667   2803.32886164627 
 668   2701.20382896843 
 669   2608.40406322368 
 670   2531.9652891122 
 671   2458.01443933794 
 672   2382.15064689434 
 673   2302.15536677325 
 674   2218.13270552767 
 675   2137.77228592415 
 676   2061.48457259551 
 677   1990.38963837577 
 678   1931.28343898942 
 679   1888.98193758835 
 680   1863.45715498762 
 681   1849.64128777573 
 682   1841.69845316511 
 683   1850.99883167324 
 684   1881.83311895242 
 685   1932.13989951601 
 686   2016.25794185127 
 687   2116.74045037805 
 688   2200.2911480987 
 689   2251.67206716264 
 690   2309.36508662621 
 691   2352.51923169464 
 692   2355.86714349309 
 693   2381.14546086717 
 694   2381.84774114962 
 695   2331.27104775921 
 696   2265.62692988761 
 697   2196.24193756645 
 698   2114.2758119021 
 699   2026.72108628417 
 700   1968.70898071682 
 701   1942.96378104111 
 702   1913.78210911751 
 703   1865.63442774646 
 704   1854.33082291268 
 705   1853.99635806606 
 706   1838.66789472916 
 707   1832.31318629964 
 708   1885.77092901812 
 709   1940.98041331348 
 710   1960.20564933434 
 711   1996.40798365934 
 712   2030.10263518111 
 713   2056.33901402928 
 714   2086.6689485249 
 715   2117.3330400967 
 716   2135.40200244515 
 717   2098.47566086722 
 718   2087.39132118738 
 719   2337.2142264852 
 720   1639.42337078115 
 721   303.424082944252 
 722   259.379953811065 
 723   358.894067245198 
 724   272.892404524539 
 725   246.02993115443 
 726   140.387691801273 
 727   152.360173478308 
 728  -18.2918350197818 
 729  -53.7736224585558 
 730   1697.66108183962 
 731   2777.46827805109 
 732   2496.00317875116 
 733   2519.04234408857 
 734   2576.74655601182 
 735   2590.87009299625 
 736   2611.36355678187 
 737   2595.52528549404 
 738   2597.83383901271 
 739   2608.15756969672 
 740   2617.44550603144 
 741   2660.9716324829 
 742   2669.9845421335 
 743   2664.50645800022 
 744   2685.46618181853 
 745   2685.17822688408 
 746   2704.36730736996 
 747   2750.62435193445 
 748   2796.61433182479 
 749   2850.28649100742 
 750   2883.58855119396 
 751   2915.6991665249 
 752   2989.70376733756 
 753   3056.37281165547 
 754   3134.22821400447 
 755   3239.63588246503 
 756   3347.08542978638 
 757   3451.86925885163 
 758   3553.67525142187 
 759   3663.83232903938 
 760   3805.51007926467 
 761   3983.46064424284 
 762   4170.96846607315 
 763   4357.25155257905 
 764   4577.34067190956 
 765   4837.75973879277 
 766   5139.18331425376 
 767   5486.52822497139 
 768   5884.98873288606 
 769   6326.23217847533 
 770   6833.07420371266 
 771   7427.48915677054 
 772   8075.24666041597 
 773   8774.28151358364 
 774   9557.78791892891 
 775   10419.8493016188 
 776   11257.6764048464 
 777   12199.8848493264 
 778   13310.3648182297 
 779   14512.5467626284 
 780   15808.6473984993 
 781   17265.3397036635 
 782   18865.0154938109 
 783   20551.9688757998 
 784   22456.0398749315 
 785   24403.8736550957 
 786   26377.7332945533 
 787   28624.1956004497 
 788   31038.1268612913 
 789   33598.1747551686 
 790   36322.6598115886 
 791   39186.7650052143 
 792   42196.6861972296 
 793   45305.6535753645 
 794   48349.8188672338 
 795   51132.1142224623 
 796   53704.961268923 
 797   55918.0446958215 
 798   57702.0130579331 
 799   59165.7420641514 
 800   59955.5304429098 
 801   60000 
 802   60000 
 803   60000 
 804   60000 
 805   58927.5932877817 
 806   56218.8912144357 
 807   53135.5271875313 
 808   49658.3423625492 
 809   45765.9363731905 
 810   41617.161769954 
 811   37350.5486839658 
 812   32667.6642250971 
 813   28082.2238961828 
 814   24351.3286467425 
 815   21578.173455613 
 816   19322.8863301203 
 817   17375.4752074503 
 818   15745.8375191938 
 819   14416.29502183 
 820   13259.7016773413 
 821   12100.3058983806 
 822   10979.2550669338 
 823   10143.4137789069 
 824   9409.21610761126 
 825   8707.16308656802 
 826   8055.50770083277 
 827   7439.62758074951 
 828   6916.13578312761 
 829   6430.46971259168 
 830   5943.36488464931 
 831   5510.4330685305 
 832   5123.71821915365 
 833   4788.49498028861 
 834   4492.68906012387 
 835   4210.68779683465 
 836   3986.50174446571 
 837   3788.01831558486 
 838   3592.78066516123 
 839   3431.12966609697 
 840   3304.35904698731 
 841   3209.25170055828 
 842   3121.80803008399 
 843   3023.06478524046 
 844   2948.36548770736 
 845   2840.30557052438 
 846   2807.13745439273 
 847   2793.70285520567 
 848   2394.39452435205 
 849   3790.19834467035 
 850   5765.44492624847 
 851   5704.24725830739 
 852   5601.8316671777 
 853   5613.95451605306 
 854   5570.70971248666 
 855   5516.71134596419 
 856   5382.30195253606 
 857   5695.97845863297 
 858   4769.3641671861 
 859   2413.75143228933 
 860   2051.48353843465 
 861   2173.6085225262 
 862   2105.27409295647 
 863   2134.14696478012 
 864   2140.92036028906 
 865   2141.83122317879 
 866   2155.22402956107 
 867   2172.48605710279 
 868   2184.51116507494 
 869   2207.53761568209 
 870   2225.74624276498 
 871   2209.35604487841 
 872   2166.42276073702 
 873   2166.30428641744 
 874   2172.14456486135 
 875   2153.72917919621 
 876   2124.70863708391 
 877   2099.85380220311 
 878   2072.96222230454 
 879   2040.86268748543 
 880   2017.48686659037 
 881   2016.87455788949 
 882   1997.5434791367 
 883   1951.86180592676 
 884   1918.4354988647 
 885   1927.72153608684 
 886   1926.3912621684 
 887   1930.21101245737 
 888   1945.69491443421 
 889   1942.70537783091 
 890   1925.62818127276 
 891   1925.39811836838 
 892   1946.65870230484 
 893   1963.09264480742 
 894   1952.88632121182 
 895   1935.13943747338 
 896   1923.14163070287 
 897   1916.14241295011 
 898   1914.23462538457 
 899   1926.94114635309 
 900   1914.42757480914 
 901   1891.50697132468 
 902   1915.44456270327 
 903   1936.74449777384 
 904   1960.10273679316 
 905   1977.77879010701 
 906   1981.87776873192 
 907   2008.77808225943 
 908   2014.39282925702 
 909   2030.35352692573 
 910   2073.08988748956 
 911   2077.82052874369 
 912   2084.00352832089 
 913   2107.12177281515 
 914   2150.42689179094 
 915   2203.38031565299 
 916   2218.84234432747 
 917   2270.9444158138 
 918   2351.98310350951 
 919   2413.71435546873 
 920   2498.01001347627 
 921   2591.75440617842 
 922   2684.85448873874 
 923   2770.18446444745 
 924   2856.25205047887 
 925   3004.42283904784 
 926   3156.38542817255 
 927   3319.33108420777 
 928   3527.26817509349 
 929   3698.8957856233 
 930   3937.89833115501 
 931   4239.95328005918 
 932   4543.02578292232 
 933   4873.54230761224 
 934   5297.35585492158 
 935   5776.24258880672 
 936   6260.23951811134 
 937   6778.80762812926 
 938   7407.85789059262 
 939   8047.59280650426 
 940   8666.47499117412 
 941   9311.99039364521 
 942   9972.69145685733 
 943   10512.7996220476 
 944   11004.8693314425 
 945   11473.8797169168 
 946   11835.8013094807 
 947   12081.8680020217 
 948   12112.4710101459 
 949   12072.9910614846 
 950   12021.4491345578 
 951   11745.3083526507 
 952   11367.4019777847 
 953   10896.3133489238 
 954   10347.082810584 
 955   9784.20693780189 
 956   9200.28586826196 
 957   8591.85092306206 
 958   7985.19021665087 
 959   7412.73636209885 
 960   6898.74989556299 
 961   6469.26921428682 
 962   6070.73901450498 
 963   5684.07228072031 
 964   5331.51674488454 
 965   5014.42687307567 
 966   4761.00720001028 
 967   4560.25885926349 
 968   4396.71158904094 
 969   4254.93399338728 
 970   4086.64347586868 
 971   3967.25805060852 
 972   3899.0579748394 
 973   3825.34346501981 
 974   3744.42358781466 
 975   3692.31955302242 
 976   3647.41227893625 
 977   3621.82820799968 
 978   3642.68078809529 
 979   3661.14398192923 
 980   3664.80678694935 
 981   3673.88682972556 
 982   3716.94241908226 
 983   3795.25898357967 
 984   3869.20847904563 
 985   3972.50303911838 
 986   4074.41583024441 
 987   4167.93677480922 
 988   4331.65240104088 
 989   4510.84885608829 
 990   4707.13987427748 
 991   4938.6591934722 
 992   5221.53359397056 
 993   5584.47979892348 
 994   6000.52262832931 
 995   6480.56016100529 
 996   6976.67672350812 
 997   7479.34986534193 
 998   8191.44813319227 
 999   9031.80298593586 
 1000   9950.0158381695 
 1001   10949.4438316784 
 1002   11998.506637619 
 1003   13065.705903463 
 1004   14161.7445061399 
 1005   15232.3726886215 
 1006   16198.6661113638 
 1007   17034.5858235814 
 1008   17725.5558607942 
 1009   18245.1509205826 
 1010   18592.0165887904 
 1011   18797.8149009093 
 1012   18876.9570952535 
 1013   18773.9995103784 
 1014   18639.7553314992 
 1015   18527.1036057443 
 1016   18371.6139636832 
 1017   18231.2578913342 
 1018   18157.6207891386 
 1019   18178.7576115274 
 1020   18255.4574901181 
