05-29-2020  14:14:21
Wavenumber (cm-1)  CCD Output
 251   2723.76647099668 
 252   2806.37102461421 
 253   2886.23552246869 
 254   2965.64948654991 
 255   3033.42070026936 
 256   3097.89436370041 
 257   3181.32215772924 
 258   3267.68272214719 
 259   3341.6388283302 
 260   3402.60529378729 
 261   3455.2706556017 
 262   3510.11242260508 
 263   3578.03230523047 
 264   3632.95398086003 
 265   3676.26238594053 
 266   3769.30498257976 
 267   3878.59729125814 
 268   3957.0124568102 
 269   4028.04527763235 
 270   4112.87065909965 
 271   4212.98983423001 
 272   4302.86335268265 
 273   4410.81539461076 
 274   4573.56126097482 
 275   4744.53480385629 
 276   4891.78841325673 
 277   5024.45539710939 
 278   5207.39620256879 
 279   5438.87107395762 
 280   5665.46751458608 
 281   5903.79364176215 
 282   6183.3311673556 
 283   6513.37150661339 
 284   6835.9452362966 
 285   7142.48417428719 
 286   7499.4563438096 
 287   7948.77425428341 
 288   8461.2827522575 
 289   8952.93592345024 
 290   9496.37375165522 
 291   10149.9183657641 
 292   10865.8410204738 
 293   11622.7907111868 
 294   12409.9438755602 
 295   13214.2964905989 
 296   14060.5975998153 
 297   14951.4321878778 
 298   15820.0030442901 
 299   16645.465575937 
 300   17432.7254564943 
 301   18178.8269487778 
 302   18854.3407656193 
 303   19424.8481502157 
 304   19879.711484194 
 305   20222.5407517865 
 306   20462.966753327 
 307   20602.9887666278 
 308   20577.2285154926 
 309   20360.4975666573 
 310   20149.9314809465 
 311   19913.6935479996 
 312   19505.8924361532 
 313   19044.7290752135 
 314   18609.7855669839 
 315   18202.0718258288 
 316   17809.960542978 
 317   17516.7479751169 
 318   17407.9493861835 
 319   17290.2900658296 
 320   17206.3209797901 
 321   17397.5941848511 
 322   17807.9437558997 
 323   18353.4501386233 
 324   19008.3679514674 
 325   19798.8693512751 
 326   20723.3228518802 
 327   21722.6743124019 
 328   22676.1510445387 
 329   23567.5440822891 
 330   24474.9614029649 
 331   25310.0680995003 
 332   25895.093145058 
 333   26107.1225833074 
 334   26283.7376648829 
 335   26455.6272613408 
 336   26237.7759036581 
 337   25741.8523760535 
 338   25099.043824164 
 339   24283.1383285091 
 340   23330.739997043 
 341   22306.358369573 
 342   21270.730635528 
 343   20234.7182587892 
 344   19230.1784404655 
 345   18309.3488008467 
 346   17390.372132807 
 347   16478.4591296792 
 348   15717.0049910982 
 349   15094.9465394283 
 350   14567.6785641645 
 351   14118.4481487021 
 352   13735.1108105992 
 353   13405.0298599819 
 354   13108.2084749893 
 355   12797.5039983974 
 356   12501.9976932515 
 357   12322.8920955081 
 358   12173.027498135 
 359   11985.9037075542 
 360   11798.9794861082 
 361   11634.9003925574 
 362   11490.2096846476 
 363   11341.5914734079 
 364   11185.5093686956 
 365   11047.768055194 
 366   10970.920937115 
 367   10945.4484870354 
 368   10958.5621879931 
 369   11018.2711647463 
 370   11156.369751431 
 371   11388.351262081 
 372   11707.0600935955 
 373   12121.9866822361 
 374   12641.0126089082 
 375   13249.3668628684 
 376   13869.0208919463 
 377   14478.6389248554 
 378   15112.2516000239 
 379   15715.4631473756 
 380   16275.7428701092 
 381   16801.9195172671 
 382   17140.167183181 
 383   17278.6925640693 
 384   17334.8216361212 
 385   17276.0083267276 
 386   17163.7735543191 
 387   17085.41953992 
 388   16841.9213309363 
 389   16432.7808718309 
 390   16012.6144756858 
 391   15550.4662486092 
 392   15056.6583598555 
 393   14582.5734903469 
 394   14124.455918108 
 395   13691.4036708895 
 396   13297.9883643577 
 397   12930.1184360889 
 398   12569.7724577614 
 399   12212.6482714804 
 400   11882.3943567698 
 401   11570.0297750944 
 402   11253.6624609128 
 403   10931.5734817552 
 404   10607.6053507813 
 405   10278.6330725393 
 406   9928.69704710317 
 407   9570.80758821066 
 408   9206.97680137943 
 409   8801.37419076169 
 410   8367.90762039018 
 411   7931.50529683861 
 412   7497.06020323389 
 413   7065.28957717281 
 414   6642.45546424367 
 415   6241.94856578895 
 416   5867.23934087452 
 417   5515.30732282278 
 418   5185.94615770474 
 419   4907.98331952492 
 420   4693.29965099311 
 421   4525.55423657303 
 422   4386.29922571847 
 423   4269.72984209934 
 424   4177.7114417181 
 425   4097.86138955242 
 426   4036.61861879549 
 427   4001.50424069946 
 428   3952.84957538236 
 429   3891.21334264238 
 430   3837.91963332191 
 431   3780.66044671547 
 432   3733.40505798076 
 433   3703.33399811851 
 434   3649.25853022101 
 435   3596.41239155469 
 436   3567.65958182429 
 437   3520.6882753767 
 438   3473.19662757462 
 439   3441.95946101575 
 440   3404.59391969409 
 441   3385.08898497626 
 442   3383.17977900818 
 443   3357.42868042342 
 444   3334.12253377196 
 445   3323.08284005139 
 446   3299.22477038615 
 447   3263.97016804529 
 448   3221.31029833032 
 449   3179.28510813756 
 450   3168.9915388377 
 451   3175.07581822567 
 452   3159.46003334733 
 453   3127.31786455643 
 454   3098.71278889044 
 455   3079.52700541759 
 456   3042.57265094953 
 457   3020.47587330229 
 458   3028.44989811354 
 459   3007.10414588721 
 460   2975.6342943243 
 461   2961.49896926114 
 462   2954.30254092593 
 463   2946.6796310684 
 464   2933.22500710795 
 465   2913.16582344869 
 466   2903.73203558748 
 467   2908.48696578162 
 468   2918.21814545835 
 469   2934.79597516437 
 470   2937.85589759038 
 471   2907.01258486099 
 472   2867.11460495383 
 473   2848.7777297458 
 474   2860.99218060407 
 475   2872.62092637023 
 476   2855.0346901114 
 477   2822.2041562815 
 478   2830.46023506548 
 479   2838.91777040787 
 480   2826.69748498743 
 481   2827.07498800335 
 482   2818.74551030058 
 483   2795.09291086806 
 484   2775.95781273361 
 485   2772.88090625186 
 486   2777.86627775422 
 487   2775.22586183171 
 488   2762.65088483816 
 489   2744.84927984076 
 490   2732.68975184959 
 491   2739.97708850577 
 492   2758.40963259735 
 493   2773.3119091657 
 494   2776.41955557677 
 495   2768.57386480017 
 496   2753.65817999366 
 497   2735.00732257511 
 498   2713.48876016746 
 499   2699.81376091903 
 500   2699.6262382112 
 501   2686.45000177411 
 502   2678.93652417622 
 503   2691.70389832399 
 504   2677.72393704221 
 505   2649.07459419578 
 506   2637.96280083379 
 507   2653.73865452878 
 508   2667.01575033335 
 509   2669.68361424357 
 510   2682.96208810932 
 511   2700.10122236188 
 512   2711.37782331128 
 513   2721.21757476172 
 514   2759.5281860239 
 515   2824.27916297572 
 516   2883.66485545142 
 517   2907.49673560624 
 518   2979.55139672381 
 519   3025.39774109146 
 520   2816.33438973334 
 521   2740.06060949576 
 522   2886.35518960899 
 523   2968.47593946013 
 524   3078.94896068496 
 525   3252.72966699506 
 526   3445.38139979213 
 527   3666.07540663801 
 528   3917.46728130038 
 529   4230.54745505118 
 530   4669.97449892468 
 531   5159.4967082006 
 532   5614.88802050081 
 533   6012.84607070163 
 534   6363.48866399398 
 535   6639.16953192503 
 536   6826.35141183122 
 537   7028.64682511115 
 538   7183.21156366767 
 539   7199.11915642671 
 540   7128.21484195278 
 541   7015.55612736734 
 542   6862.24267754015 
 543   6634.97927893907 
 544   6342.27010756043 
 545   6027.91092703677 
 546   5727.57379236515 
 547   5403.58742939404 
 548   5076.40474825505 
 549   4785.01316626262 
 550   4521.89792337879 
 551   4272.48454148613 
 552   4036.07905366948 
 553   3828.52731455235 
 554   3656.93352973909 
 555   3522.75605988678 
 556   3419.27676339288 
 557   3327.36484561299 
 558   3253.97448866778 
 559   3203.17791145477 
 560   3151.53411363271 
 561   3120.41128403646 
 562   3118.35873374679 
 563   3121.50286032246 
 564   3126.6405536979 
 565   3128.72880088515 
 566   3130.56443366545 
 567   3163.23516271056 
 568   3204.84024061635 
 569   3242.93939443424 
 570   3318.11472330424 
 571   3407.74190458464 
 572   3500.85558741279 
 573   3632.16200603218 
 574   3855.18767754904 
 575   4116.11226481415 
 576   4364.89894920158 
 577   4707.71577767123 
 578   5133.68503342003 
 579   5600.67706439432 
 580   6108.15339730802 
 581   6651.08087198945 
 582   7222.17782854874 
 583   7799.26062430748 
 584   8324.70182793067 
 585   8781.56107277768 
 586   9166.58072855366 
 587   9457.25845908093 
 588   9644.24158697542 
 589   9666.60409536947 
 590   9484.45162228784 
 591   9310.01599309306 
 592   9080.39931033616 
 593   8658.68377842489 
 594   8199.70582144228 
 595   7731.35228157964 
 596   7235.32103863273 
 597   6734.2736998052 
 598   6288.3845420735 
 599   5913.23015647839 
 600   5598.93534963487 
 601   5364.5886452141 
 602   5126.23141624563 
 603   4812.11937792069 
 604   4477.00036316074 
 605   4308.78217205166 
 606   4308.36690563958 
 607   4321.34038932305 
 608   4322.77334602769 
 609   4331.43881974024 
 610   4365.11108129104 
 611   4412.31102715343 
 612   4423.34318686652 
 613   4542.91181317529 
 614   4908.73337093915 
 615   5092.61606576665 
 616   5120.4233444224 
 617   5207.01698953526 
 618   5317.12937323488 
 619   5424.55684868266 
 620   5540.91276152025 
 621   5687.22055588574 
 622   5834.78996474084 
 623   5986.44330729917 
 624   6158.45159719268 
 625   6345.4778284952 
 626   6544.05826862559 
 627   6751.91217128976 
 628   6975.501658769 
 629   7244.57761414971 
 630   7535.00221177095 
 631   7823.03244908714 
 632   8149.86246765726 
 633   8551.88504426709 
 634   9029.4433897537 
 635   9543.05749176823 
 636   10043.0160958055 
 637   10585.3810230835 
 638   11221.0034263872 
 639   11897.2944104074 
 640   12653.8528500141 
 641   13509.9801461538 
 642   14453.2254562714 
 643   15528.115357375 
 644   16683.0925849192 
 645   17931.0069155788 
 646   19403.736378816 
 647   20853.143164541 
 648   22414.0871768293 
 649   24493.2100487235 
 650   27000.2622044169 
 651   29889.4583777068 
 652   33311.3542604564 
 653   37399.4313945611 
 654   41439.4319673744 
 655   45281.1652296568 
 656   48922.4766420846 
 657   51437.3995628989 
 658   53646.0876206533 
 659   56104.9266824382 
 660   58105.0884960876 
 661   59505.2100975118 
 662   60000 
 663   60000 
 664   60000 
 665   60000 
 666   60000 
 667   60000 
 668   60000 
 669   60000 
 670   60000 
 671   60000 
 672   60000 
 673   60000 
 674   60000 
 675   60000 
 676   60000 
 677   60000 
 678   59965.3917611702 
 679   59908.0864585789 
 680   59766.2183299547 
 681   59574.320159007 
 682   59810.3245283396 
 683   60000 
 684   60000 
 685   60000 
 686   59007.1377187842 
 687   58017.5447728619 
 688   58083.597009432 
 689   58097.2578296532 
 690   57973.6634333682 
 691   57872.9366705594 
 692   57761.064397783 
 693   57416.7244630842 
 694   57228.6810395475 
 695   57526.178190157 
 696   58240.7993787328 
 697   59080.6501298555 
 698   59582.0636197185 
 699   59679.2973116023 
 700   59884.1091093425 
 701   60000 
 702   60000 
 703   60000 
 704   60000 
 705   60000 
 706   60000 
 707   60000 
 708   60000 
 709   59253.2055889207 
 710   57386.2025089091 
 711   55176.8922000511 
 712   52642.3112995238 
 713   49726.7589801321 
 714   46430.2849249822 
 715   42888.0689355907 
 716   38980.7857017687 
 717   35136.6005479454 
 718   31944.5516209406 
 719   29022.295526854 
 720   26444.4413837746 
 721   24129.9867079225 
 722   21738.9310563502 
 723   19712.7311691325 
 724   18054.5078041145 
 725   16597.9296162515 
 726   15417.973351689 
 727   14387.6514311641 
 728   13462.4776802784 
 729   12696.680452578 
 730   12100.4333128025 
 731   11556.9594424865 
 732   11020.2272544672 
 733   10540.160700919 
 734   10129.865906859 
 735   9769.3840395646 
 736   9431.40076915713 
 737   9106.72727719354 
 738   8821.54401804231 
 739   8570.89911873325 
 740   8337.37880626525 
 741   8120.21903073475 
 742   7929.14144277788 
 743   7751.74581990099 
 744   7571.78030545497 
 745   7398.23522897544 
 746   7248.01811262464 
 747   7119.72862149721 
 748   7000.58303499301 
 749   6888.02925879078 
 750   6771.54242433501 
 751   6664.25311552957 
 752   6584.3030213813 
 753   6498.66561936532 
 754   6421.70203104457 
 755   6370.93852359941 
 756   6334.10031975201 
 757   6294.42326123136 
 758   6268.32649551693 
 759   6266.95372244708 
 760   6267.70102804273 
 761   6250.45329453888 
 762   6261.66028580615 
 763   6322.72075603997 
 764   6373.85565668395 
 765   6457.6315015887 
 766   6581.87015129514 
 767   6719.16139162104 
 768   6871.76099927226 
 769   7076.28497068911 
 770   7363.37905187738 
 771   7727.09050267788 
 772   8123.91942846032 
 773   8568.45487070028 
 774   9086.00915347319 
 775   9697.71097600747 
 776   10436.4956850044 
 777   11307.9546579193 
 778   12323.9507056303 
 779   13512.4809145641 
 780   14891.3145788123 
 781   16452.2273246382 
 782   18323.684552083 
 783   20587.1844451563 
 784   22817.4948703231 
 785   25212.2558777668 
 786   27919.3900379045 
 787   30701.2513568182 
 788   33581.6680335072 
 789   36408.8898985034 
 790   39044.5562726661 
 791   41463.9435413521 
 792   43468.0156756857 
 793   45021.7115586896 
 794   46088.2984925625 
 795   46511.06724888 
 796   46259.8055626355 
 797   45373.5923035343 
 798   43882.666294463 
 799   41798.3980644925 
 800   39227.746535905 
 801   36309.808113841 
 802   33187.3928902067 
 803   29983.1728098202 
 804   26771.3940983785 
 805   23786.0335029572 
 806   21145.8545376888 
 807   18720.1350938026 
 808   16635.1884216716 
 809   14604.1405722938 
 810   12631.0718519795 
 811   11337.5908307142 
 812   10343.5807785976 
 813   9469.43676546422 
 814   8773.0462608063 
 815   8230.95292376596 
 816   7816.54984823642 
 817   7487.12953235914 
 818   7197.59469076852 
 819   6930.07010199855 
 820   6715.12109351725 
 821   6510.18570439921 
 822   6293.85704516578 
 823   6117.19949431189 
 824   5923.38340651372 
 825   5701.48225449477 
 826   5485.69183213974 
 827   5297.06720848784 
 828   5103.05882243074 
 829   4884.07416393573 
 830   4655.42601468321 
 831   4449.28912220243 
 832   4262.95786616127 
 833   4086.75149595357 
 834   3936.34680685477 
 835   3826.65385982767 
 836   3692.97660559451 
 837   3593.56975946326 
 838   3548.97792187939 
 839   3492.08572750061 
 840   3450.68124703237 
 841   3420.53734516709 
 842   3387.69392328573 
 843   3346.67787019084 
 844   3281.86851003383 
 845   3207.53553371064 
 846   3215.79084784771 
 847   3185.68072581457 
 848   2815.52639837432 
 849   4195.94760600211 
 850   6120.08890876228 
 851   6068.83573001695 
 852   5995.60994582807 
 853   6047.61545981025 
 854   6049.0308939032 
 855   6042.80212426315 
 856   5967.95139605396 
 857   6296.24047051333 
 858   5417.33325995035 
 859   3182.10082416056 
 860   2874.93231628021 
 861   3032.32776634084 
 862   2984.68338951365 
 863   3002.02234953009 
 864   2988.39170520289 
 865   2975.29470343257 
 866   2969.48114764081 
 867   2956.51515598769 
 868   2948.87871137406 
 869   2987.31279191891 
 870   2996.51191166917 
 871   2966.62742279926 
 872   2966.32282874125 
 873   2979.18080147287 
 874   3007.96390156276 
 875   3050.69872173509 
 876   3093.85919427668 
 877   3131.82128020528 
 878   3176.15786533969 
 879   3232.83929140563 
 880   3293.65718338843 
 881   3351.95684753599 
 882   3436.03089328283 
 883   3488.32692004672 
 884   3508.32929095466 
 885   3582.83950325086 
 886   3652.88374460388 
 887   3701.503965611 
 888   3745.45626778327 
 889   3800.97601713483 
 890   3874.92356233692 
 891   3944.97050862114 
 892   4019.2824614634 
 893   4104.82068144629 
 894   4162.21562209232 
 895   4219.60495716335 
 896   4287.21043915651 
 897   4355.63912809968 
 898   4420.92294883099 
 899   4471.58579601063 
 900   4497.73364195837 
 901   4521.91228648142 
 902   4567.4166774868 
 903   4587.04174206702 
 904   4600.4359549229 
 905   4599.54052507679 
 906   4573.37115575667 
 907   4576.31036864406 
 908   4570.86123404233 
 909   4581.43904928381 
 910   4628.64551484196 
 911   4664.52113556521 
 912   4706.41605388201 
 913   4757.46845131349 
 914   4843.87176175635 
 915   4981.41686840999 
 916   5092.78372792807 
 917   5227.68889466169 
 918   5389.05106578359 
 919   5544.00097656246 
 920   5729.31227407513 
 921   5968.66357486558 
 922   6239.42018140243 
 923   6508.57708322107 
 924   6782.64515921615 
 925   7115.56937932697 
 926   7474.23298980416 
 927   7836.07789356836 
 928   8215.23693691081 
 929   8610.68585178189 
 930   9034.88976473395 
 931   9491.75932496865 
 932   9954.64081928381 
 933   10417.0421108634 
 934   10993.8438674189 
 935   11581.5232324306 
 936   12169.5110779434 
 937   12864.922631897 
 938   13609.8675194259 
 939   14375.4606695722 
 940   15175.4512538191 
 941   16043.2049045427 
 942   16980.5073456797 
 943   17906.0260367167 
 944   18893.5826690375 
 945   19940.6668105541 
 946   20931.1121865367 
 947   21841.0775587901 
 948   22662.1894167818 
 949   23358.6142858939 
 950   23882.6378084763 
 951   24213.139538958 
 952   24364.4545613211 
 953   24257.1603540551 
 954   23879.6288514939 
 955   23295.7786208226 
 956   22511.4023351636 
 957   21556.9955981768 
 958   20475.7593759943 
 959   19296.4684024734 
 960   18042.8111785527 
 961   16780.365105457 
 962   15552.087050881 
 963   14352.2169801773 
 964   13213.8735609519 
 965   12251.3178391758 
 966   11411.454460919 
 967   10569.4519687208 
 968   9772.42403444235 
 969   9160.12691507116 
 970   8620.81257536757 
 971   8191.00940284953 
 972   7859.95921535155 
 973   7573.20053822497 
 974   7336.3179025706 
 975   7156.88905390477 
 976   6986.44545845187 
 977   6847.53557040997 
 978   6795.66666438918 
 979   6777.35864102943 
 980   6747.30617323971 
 981   6752.46048328758 
 982   6797.25467713401 
 983   6834.93568436502 
 984   6944.26719546645 
 985   7118.68949418385 
 986   7303.32789352329 
 987   7489.40957137335 
 988   7735.79656430617 
 989   8064.21055731462 
 990   8469.59741037018 
 991   8888.34482999546 
 992   9317.47323372412 
 993   9886.81155198591 
 994   10540.4339475381 
 995   11341.3389359375 
 996   12243.154961535 
 997   13128.506225856 
 998   14135.9235837358 
 999   15221.4077151253 
 1000   16357.3831636174 
 1001   17537.9956546298 
 1002   18712.2352533594 
 1003   19821.1714834013 
 1004   20869.1329858142 
 1005   21875.6366345656 
 1006   22768.398340588 
 1007   23476.3539752786 
 1008   24218.1013497083 
 1009   24771.4135382115 
 1010   25109.7300260338 
 1011   25369.5088288447 
 1012   25467.6925452693 
 1013   25502.9063971231 
 1014   25552.8414647588 
 1015   25558.5595403719 
 1016   25449.4247276975 
 1017   25302.7582368261 
 1018   25165.7702304039 
 1019   25020.8878295034 
 1020   24841.2249325766 
 1021   24635.7362258997 
 1022   24435.1966443689 
 1023   24219.8203476946 
 1024   23961.5467492866 
 1025   23665.805465499 
 1026   23370.9337809697 
 1027   23088.7925447043 
 1028   22726.8083070309 
 1029   22356.1214352458 
 1030   22067.2060598018 
