05-29-2020  14:20:57
Wavenumber (cm-1)  CCD Output
 251   3013.83920094375 
 252   3106.63159060308 
 253   3208.24362399041 
 254   3320.73603068214 
 255   3429.74624109751 
 256   3538.00149564839 
 257   3662.02036160753 
 258   3787.67801207774 
 259   3896.62165489379 
 260   3980.78275841262 
 261   4058.35458407397 
 262   4139.31143997659 
 263   4210.42389799176 
 264   4264.40871479599 
 265   4311.40483121798 
 266   4381.16482273941 
 267   4468.66353973462 
 268   4550.97924581234 
 269   4611.22144869722 
 270   4690.4293048086 
 271   4819.65548317331 
 272   4935.98455303352 
 273   5058.72903584754 
 274   5234.35243848888 
 275   5408.85574975093 
 276   5573.04180322522 
 277   5756.14946495699 
 278   5954.82629354668 
 279   6180.68556402075 
 280   6448.94196635804 
 281   6716.00530823156 
 282   6988.82731707104 
 283   7320.14638669105 
 284   7671.83377417447 
 285   8033.68874646443 
 286   8455.52652344941 
 287   8970.14530002278 
 288   9571.39843431932 
 289   10220.8055475806 
 290   10941.2618823468 
 291   11777.246188751 
 292   12758.2203996049 
 293   13832.6883809763 
 294   14955.5130416624 
 295   16148.6503299889 
 296   17438.0046566563 
 297   18802.0513367912 
 298   20145.292437393 
 299   21478.007130983 
 300   22826.0563483227 
 301   24123.7459051079 
 302   25308.9085412937 
 303   26352.8262810091 
 304   27279.1687320961 
 305   28066.8659142713 
 306   28667.9267695944 
 307   29053.5324954304 
 308   29232.4534231601 
 309   29234.5032556861 
 310   29079.2484166599 
 311   28761.083018647 
 312   28285.148915591 
 313   27739.7003026016 
 314   27176.5462301872 
 315   26615.3773232395 
 316   26111.3779319898 
 317   25740.7145362642 
 318   25565.0654630986 
 319   25557.7925408108 
 320   25769.9111764697 
 321   26316.9205147297 
 322   27213.4773754226 
 323   28419.9718491307 
 324   29875.4150365219 
 325   31548.9713822908 
 326   33398.0672226452 
 327   35351.1191836672 
 328   37301.9897338979 
 329   39195.8158074318 
 330   41007.2896058856 
 331   42552.7380584479 
 332   43703.561936609 
 333   44436.6563772709 
 334   44692.0266326455 
 335   44453.2863564781 
 336   43762.1361102404 
 337   42623.0092169646 
 338   41045.4432968879 
 339   39074.6856769839 
 340   36827.61672702 
 341   34395.2369357992 
 342   31821.5600811768 
 343   29212.7029804723 
 344   26677.2648463961 
 345   24287.2511667164 
 346   22046.8213373671 
 347   19987.2652320641 
 348   18185.59792869 
 349   16632.5943888683 
 350   15287.0358429823 
 351   14116.3766305559 
 352   13147.5200611781 
 353   12372.8408684465 
 354   11723.8657463179 
 355   11177.8143754264 
 356   10734.9348747129 
 357   10394.2173866476 
 358   10107.0891559793 
 359   9875.38623459975 
 360   9755.38889731896 
 361   9656.89086179105 
 362   9551.03787965992 
 363   9522.48575195291 
 364   9540.11262713434 
 365   9603.55018660774 
 366   9778.59886207177 
 367   10039.5983503266 
 368   10365.3017163772 
 369   10783.375938244 
 370   11359.8841085739 
 371   12088.0338149379 
 372   12888.1928667797 
 373   13783.0851961833 
 374   14817.0921073274 
 375   15993.5790327346 
 376   17185.0282182773 
 377   18338.31506197 
 378   19485.9773213629 
 379   20540.3806874582 
 380   21435.8451522311 
 381   22152.0336705828 
 382   22635.7681108141 
 383   22866.4659315477 
 384   22837.6000505324 
 385   22460.5927471564 
 386   21778.4641175136 
 387   20921.8213850616 
 388   19869.6026816715 
 389   18651.0735034656 
 390   17343.39188704 
 391   15960.8386698892 
 392   14564.558217598 
 393   13232.3236329359 
 394   11961.3388196176 
 395   10785.0918409166 
 396   9750.80180621819 
 397   8845.61487586826 
 398   8039.7327462856 
 399   7323.55414643727 
 400   6740.38283273993 
 401   6274.96512406619 
 402   5879.28948575597 
 403   5525.43750687068 
 404   5230.20667535452 
 405   5000.79944983425 
 406   4787.86203477703 
 407   4590.67041946037 
 408   4420.95524788431 
 409   4264.48503851807 
 410   4102.86618746813 
 411   3933.70478530716 
 412   3776.81240135715 
 413   3629.86790618266 
 414   3483.47421011301 
 415   3336.97191803206 
 416   3219.01703558836 
 417   3135.27165932385 
 418   3061.34519647169 
 419   3019.00750198378 
 420   3018.9571214653 
 421   3045.02480803443 
 422   3083.3833925212 
 423   3128.83583074843 
 424   3183.02997950677 
 425   3245.90235685898 
 426   3313.9785358437 
 427   3376.66570479523 
 428   3412.43913899421 
 429   3435.86720100966 
 430   3462.89694357053 
 431   3450.64683107991 
 432   3421.05572868308 
 433   3415.97870530064 
 434   3421.84100870814 
 435   3420.95920472053 
 436   3408.25017205627 
 437   3396.99641787584 
 438   3390.61711201708 
 439   3378.88984245602 
 440   3348.26295648976 
 441   3339.92189858559 
 442   3356.10327466208 
 443   3339.79456757405 
 444   3318.67095023407 
 445   3310.8336955594 
 446   3298.02123645426 
 447   3277.62233912828 
 448   3256.44511557601 
 449   3244.36993525774 
 450   3245.02871638969 
 451   3240.6431294441 
 452   3214.61120513354 
 453   3190.91428258852 
 454   3170.05677526199 
 455   3140.4885039564 
 456   3106.83591544553 
 457   3087.79578513823 
 458   3085.85158795122 
 459   3071.03421964255 
 460   3052.75727188933 
 461   3047.03120883994 
 462   3051.22748894536 
 463   3047.10404756499 
 464   3030.17996172252 
 465   3016.88773367326 
 466   3021.89537155718 
 467   3028.86228312797 
 468   3013.44784038238 
 469   3010.97943946782 
 470   3018.05233187311 
 471   3009.35609464214 
 472   2998.08721095404 
 473   2996.82977678551 
 474   3006.62463926005 
 475   3015.08531750045 
 476   3019.65093549068 
 477   3020.20755725278 
 478   3013.0155358594 
 479   2998.29535045637 
 480   2984.48213140341 
 481   2980.83280426321 
 482   2967.28646821734 
 483   2947.19845439325 
 484   2943.70665606233 
 485   2948.19312285657 
 486   2943.42532790652 
 487   2926.87367525483 
 488   2930.21137478195 
 489   2940.03923714389 
 490   2932.09417857054 
 491   2915.85465407532 
 492   2910.70677218198 
 493   2915.62360091933 
 494   2905.01621795668 
 495   2892.10267305818 
 496   2881.95345402101 
 497   2862.13084590149 
 498   2839.40595709404 
 499   2820.61099364879 
 500   2805.42377739218 
 501   2786.03196538069 
 502   2770.2169914165 
 503   2761.37708074023 
 504   2737.36511266429 
 505   2703.07770846729 
 506   2677.79218912633 
 507   2674.51514040158 
 508   2669.70933077077 
 509   2652.16879579327 
 510   2638.2925259338 
 511   2645.50073799333 
 512   2654.92718475703 
 513   2642.36387786798 
 514   2644.98258597548 
 515   2676.70724673581 
 516   2717.46176821292 
 517   2727.70487867858 
 518   2714.96054617059 
 519   2690.61950342846 
 520   2649.52434816121 
 521   2621.47922023051 
 522   2602.93094081642 
 523   2564.00581848834 
 524   2532.32840677925 
 525   2494.89495238278 
 526   2430.4244134188 
 527   2383.38407273736 
 528   2363.11621707429 
 529   2364.60512367007 
 530   2390.04043544447 
 531   2401.095647588 
 532   2393.76327638809 
 533   2406.22176828592 
 534   2419.69554255889 
 535   2427.4339667813 
 536   2439.98742766106 
 537   2455.07250538355 
 538   2466.37497043808 
 539   2477.0291136199 
 540   2504.24962831468 
 541   2535.1779339558 
 542   2563.8025729966 
 543   2601.07162130187 
 544   2627.98780190068 
 545   2646.89175706255 
 546   2676.32494743264 
 547   2707.34376229807 
 548   2724.56989070206 
 549   2729.72160446306 
 550   2750.52812839044 
 551   2767.11382774202 
 552   2763.67566068616 
 553   2758.37972807913 
 554   2777.74532163475 
 555   2806.85351571201 
 556   2813.2560242503 
 557   2817.51115752384 
 558   2831.97723036866 
 559   2854.24707457971 
 560   2875.71635135897 
 561   2898.85787220421 
 562   2929.65400906615 
 563   2966.37734703341 
 564   2984.67148254266 
 565   2996.13176950175 
 566   3025.66287983642 
 567   3049.88877489188 
 568   3060.17142412091 
 569   3068.97089791742 
 570   3096.67043984136 
 571   3127.75420688876 
 572   3154.16013191534 
 573   3187.58299494352 
 574   3232.93167121125 
 575   3280.57927656245 
 576   3327.51308259129 
 577   3398.85313755043 
 578   3484.31749289798 
 579   3565.29365609132 
 580   3637.35699818898 
 581   3702.39893125314 
 582   3771.55958764543 
 583   3851.96420242211 
 584   3924.94551388024 
 585   4004.50796251035 
 586   4100.96828402962 
 587   4189.20238871574 
 588   4280.12611582402 
 589   4382.9003075498 
 590   4491.63944210272 
 591   4606.61577648105 
 592   4718.0761725828 
 593   4822.24074839167 
 594   4938.29338582321 
 595   5049.97963671292 
 596   5151.93775690645 
 597   5259.58220222092 
 598   5336.07351676684 
 599   5403.66498372278 
 600   5498.22497132287 
 601   5564.81355343214 
 602   5671.33404479578 
 603   5741.2995366389 
 604   5533.92647652589 
 605   5454.22835214337 
 606   5596.36311000782 
 607   5704.9127380415 
 608   5811.78082391257 
 609   5928.98976306594 
 610   6052.01565107867 
 611   6196.59376859774 
 612   6302.83879448061 
 613   6511.94623072359 
 614   6966.06051579251 
 615   7210.36996783648 
 616   7291.7084907591 
 617   7455.73184816829 
 618   7659.31730381444 
 619   7864.91236764872 
 620   8064.56168446924 
 621   8271.96489449765 
 622   8509.57289712017 
 623   8771.59482512396 
 624   9048.19353949478 
 625   9353.46844309515 
 626   9691.04381700432 
 627   10053.4768648925 
 628   10433.5389139398 
 629   10845.0652318397 
 630   11297.88044813 
 631   11814.9120229008 
 632   12440.6360267039 
 633   13157.4022871759 
 634   13896.5042368873 
 635   14621.6555342704 
 636   15470.0856328193 
 637   16445.509603078 
 638   17507.523249673 
 639   18700.7828429612 
 640   19996.4607742552 
 641   21387.1217029632 
 642   22909.9943322719 
 643   24591.5788982548 
 644   26481.8921878546 
 645   28579.6718112992 
 646   30852.4051537213 
 647   33606.1120560521 
 648   36648.1426008337 
 649   39603.8308569681 
 650   42974.9166113352 
 651   46435.0586704691 
 652   49555.0245488626 
 653   52438.4533682491 
 654   54973.5498117086 
 655   57222.8401936273 
 656   59061.5223200139 
 657   59692.7207483677 
 658   59899.8265953331 
 659   60000 
 660   60000 
 661   60000 
 662   60000 
 663   60000 
 664   60000 
 665   60000 
 666   60000 
 667   60000 
 668   60000 
 669   60000 
 670   60000 
 671   60000 
 672   60000 
 673   60000 
 674   60000 
 675   60000 
 676   60000 
 677   60000 
 678   60000 
 679   59949.957726706 
 680   59789.495889606 
 681   59591.5188949752 
 682   59825.7031431898 
 683   60000 
 684   60000 
 685   60000 
 686   58990.7376153203 
 687   57981.239061876 
 688   58023.0262169532 
 689   58034.5949001357 
 690   57913.0519009189 
 691   57799.2884100942 
 692   57679.7821864378 
 693   57372.9860983899 
 694   57062.3227593359 
 695   57522.6193482822 
 696   59068.0734364036 
 697   59585.1787759338 
 698   59433.1378596646 
 699   59642.1997846389 
 700   59918.1371078753 
 701   60000 
 702   60000 
 703   60000 
 704   60000 
 705   60000 
 706   60000 
 707   60000 
 708   60000 
 709   57781.4091540375 
 710   55100.5754742023 
 711   52085.973994044 
 712   48799.537304386 
 713   45263.5163237519 
 714   41517.8954397176 
 715   37662.6930193812 
 716   33475.5491824823 
 717   29690.526091774 
 718   27274.825710112 
 719   25393.0350211126 
 720   23316.7054406419 
 721   20829.5003982686 
 722   18329.656865976 
 723   16778.0655691396 
 724   15814.8195661888 
 725   14819.8700076664 
 726   14006.4626427121 
 727   13292.4868333513 
 728   12496.4710257391 
 729   11832.1446888042 
 730   12058.5393937442 
 731   12693.6023256378 
 732   12910.8225912441 
 733   12428.0762308401 
 734   11931.631946427 
 735   11542.8404956418 
 736   11145.9427424029 
 737   10753.519850768 
 738   10431.5080735617 
 739   10139.5831826801 
 740   9839.04438433828 
 741   9571.35048208359 
 742   9309.47975718135 
 743   9060.07817956481 
 744   8835.28862065266 
 745   8604.28244506093 
 746   8397.06159800132 
 747   8213.03436427129 
 748   8031.16470119827 
 749   7871.93537134584 
 750   7710.30221294306 
 751   7544.89789146107 
 752   7394.60141633661 
 753   7227.91318081877 
 754   7088.5972094925 
 755   6990.58734470581 
 756   6876.72374423978 
 757   6728.64625411072 
 758   6592.13157595053 
 759   6485.52845057979 
 760   6360.8564564157 
 761   6220.38877786913 
 762   6083.10689139548 
 763   5962.34590566804 
 764   5856.03505334695 
 765   5751.17797725257 
 766   5648.43570496432 
 767   5548.66559381167 
 768   5438.90762465001 
 769   5341.96028833993 
 770   5268.87948950341 
 771   5211.33854046697 
 772   5158.95279580993 
 773   5088.7638223518 
 774   5012.24749115759 
 775   4954.14459784707 
 776   4890.09629952554 
 777   4813.90748028639 
 778   4744.32057585729 
 779   4699.12764343664 
 780   4654.81526145904 
 781   4579.82015782017 
 782   4493.91468410115 
 783   4440.20808104251 
 784   4372.6793643761 
 785   4294.06150611683 
 786   4230.80304618875 
 787   4187.15915065922 
 788   4133.70646126221 
 789   4071.89757590677 
 790   4023.95902019833 
 791   3994.93868583527 
 792   3937.80692317895 
 793   3880.32761893456 
 794   3848.58330486544 
 795   3810.73169896455 
 796   3766.06771742866 
 797   3721.03413839951 
 798   3672.35171853007 
 799   3611.76733686614 
 800   3558.22732325464 
 801   3513.03580150005 
 802   3465.60545404746 
 803   3415.29224908208 
 804   3380.29881613735 
 805   3347.04073093815 
 806   3299.35120737221 
 807   3254.68148728669 
 808   3240.35692080738 
 809   3222.91951773607 
 810   3184.82740538684 
 811   3175.03944478037 
 812   3180.70691888741 
 813   3180.44628923789 
 814   3167.62031227603 
 815   3150.55459997756 
 816   3139.20463530268 
 817   3132.44487402372 
 818   3117.18933792912 
 819   3085.46435538491 
 820   3070.21779450564 
 821   3056.10187142109 
 822   3026.16916825581 
 823   3004.61212616328 
 824   2989.03743532914 
 825   2975.72076484751 
 826   2957.83502835052 
 827   2931.41102388788 
 828   2927.67505969393 
 829   2933.92737058166 
 830   2929.24601111364 
 831   2921.32603381966 
 832   2919.21055354676 
 833   2919.27405873682 
 834   2919.66936183714 
 835   2920.67597405281 
 836   2904.18839480572 
 837   2905.19693882212 
 838   2920.29391820359 
 839   2902.06365334918 
 840   2889.72018468086 
 841   2887.55627384575 
 842   2883.19151325039 
 843   2874.33930576076 
 844   2861.68630603363 
 845   2823.30021827097 
 846   2847.36380268035 
 847   2846.31597213604 
 848   2514.62534717218 
 849   3938.37341901803 
 850   5891.3600714928 
 851   5843.57610904042 
 852   5777.58887331266 
 853   5837.91138173264 
 854   5862.86572192006 
 855   5897.22246465123 
 856   5835.50944603902 
 857   6175.502737953 
 858   5311.16586941689 
 859   3093.33722965587 
 860   2829.15479675108 
 861   3013.88032815353 
 862   2967.30681294903 
 863   2982.77299036737 
 864   2986.13358474847 
 865   3001.71056905894 
 866   3024.46328981201 
 867   3023.84617461455 
 868   2998.3598131088 
 869   3002.47104149742 
 870   3014.33152952595 
 871   3020.4072437211 
 872   3042.62996246282 
 873   3079.10148581436 
 874   3124.29433692078 
 875   3166.55458296419 
 876   3215.82070035517 
 877   3310.09346091586 
 878   3393.59874872226 
 879   3472.41610197076 
 880   3571.29612363448 
 881   3657.72622900929 
 882   3739.78880852902 
 883   3816.21265335669 
 884   3899.15928039947 
 885   4006.439675742 
 886   4093.95070307822 
 887   4208.33821269917 
 888   4347.19185743438 
 889   4451.43794172749 
 890   4556.31528496909 
 891   4685.06192410692 
 892   4811.77496731508 
 893   4918.15374324614 
 894   5040.20249670999 
 895   5139.08060940354 
 896   5209.18956570621 
 897   5263.48679061211 
 898   5300.93204902784 
 899   5349.44230191027 
 900   5366.64372410444 
 901   5351.08936134722 
 902   5346.06416959198 
 903   5302.07895010018 
 904   5259.61750245754 
 905   5213.07631816911 
 906   5140.75579544333 
 907   5104.76124593564 
 908   5061.34043849646 
 909   5036.51498598409 
 910   5048.42111019809 
 911   5040.13929804961 
 912   5054.25581727107 
 913   5112.94072142105 
 914   5202.08633416819 
 915   5300.12877956613 
 916   5411.83267921008 
 917   5570.44440610816 
 918   5739.08276982087 
 919   5887.35742187496 
 920   6082.94930284552 
 921   6314.09894785431 
 922   6555.7164399019 
 923   6794.04752888027 
 924   7035.57992846618 
 925   7312.05668866667 
 926   7587.15691163805 
 927   7858.76643544564 
 928   8143.44512873876 
 929   8391.58540373977 
 930   8605.49596741119 
 931   8793.96314094468 
 932   8957.26660969269 
 933   9103.29508826502 
 934   9258.83830226825 
 935   9385.86091282209 
 936   9491.3218671415 
 937   9639.98883659424 
 938   9851.93656082507 
 939   10107.7174361714 
 940   10451.1030193439 
 941   10915.0015169222 
 942   11428.5113034871 
 943   11908.1556570584 
 944   12540.8341835413 
 945   13379.9647968885 
 946   14277.4266414752 
 947   15210.0407253887 
 948   16173.688134309 
 949   17162.8854856533 
 950   18121.6428378962 
 951   18952.6502892698 
 952   19643.9888084194 
 953   20188.7361081846 
 954   20425.6877112645 
 955   20341.5664577704 
 956   20316.9758595904 
 957   19994.3589691889 
 958   19333.8133272148 
 959   18508.6306338597 
 960   17546.8362391229 
 961   16538.4495496977 
 962   15463.3652870903 
 963   14324.2143328913 
 964   13196.9192785059 
 965   12155.2872245092 
 966   11198.3055517321 
 967   10344.6270627272 
 968   9615.99221099456 
 969   8984.15037753584 
 970   8378.9184586802 
 971   7868.37783426533 
 972   7503.21806562975 
 973   7230.96524142039 
 974   6962.82287438491 
 975   6737.06625895765 
 976   6544.08986548789 
 977   6374.05894163217 
 978   6250.75472676333 
 979   6183.19601479835 
 980   6111.6558122794 
 981   6030.55983337994 
 982   5958.7154448546 
 983   5891.47019816488 
 984   5827.97787179717 
 985   5809.2080098414 
 986   5799.86457836919 
 987   5771.14667835522 
 988   5775.05688805825 
 989   5791.10677619315 
 990   5815.62011283486 
 991   5853.10902217163 
 992   5918.8921645763 
 993   6033.30982000469 
 994   6138.59416142603 
 995   6268.75890535742 
 996   6417.11768983484 
 997   6540.35015906684 
 998   6722.37475153441 
 999   6955.17238095054 
 1000   7199.36092107856 
 1001   7443.4498580136 
 1002   7696.91580001852 
 1003   7959.80584294674 
 1004   8336.03745945973 
 1005   8765.07721635596 
 1006   9195.71712044905 
 1007   9724.37414504523 
 1008   10248.201754528 
 1009   10817.6056645166 
 1010   11500.0287438954 
 1011   12274.2657809984 
 1012   13072.9851094637 
 1013   13882.5821955268 
 1014   14789.7152281648 
 1015   15767.0960851625 
 1016   16764.5798803153 
 1017   17881.8214526158 
 1018   18995.9083840171 
 1019   20164.1901040513 
 1020   21398.3076326928 
 1021   22627.7704620004 
 1022   23936.2949352546 
 1023   25321.0674822488 
 1024   26727.4450834806 
 1025   28151.5128720912 
 1026   29650.5876560025 
 1027   31234.8108245315 
 1028   32782.2712004529 
 1029   34238.6716647413 
 1030   35789.2878289763 
 1031   37620.7206347029 
